# onset,offset,note,velocity
1.0325170068027212	1.2531065759637188	88	127
1.2647165532879818	1.3807936507936507	87	127
1.3924263038548752	1.624625850340136	88	127
1.624625850340136	1.8916553287981859	83	127
1.903265306122449	2.181904761904762	80	127
2.181904761904762	2.437301587301587	83	127
2.448934240362812	2.5650340136054424	76	127
2.5650340136054424	2.6811337868480725	78	127
2.6811337868480725	2.808843537414966	76	127
2.808843537414966	2.9133333333333336	75	127
2.9249433106575964	3.1687528344671203	76	127
3.1687528344671203	3.400952380952381	71	127
3.412562358276644	3.6563718820861677	68	127
3.6563718820861677	3.9582312925170067	71	127
3.9582312925170067	4.120748299319728	64	127
4.120748299319728	4.23687074829932	71	127
4.248458049886621	4.364580498866213	66	127
4.376190476190477	4.492290249433107	71	127
4.50390022675737	4.62	68	127
4.62	4.73609977324263	71	127
4.73609977324263	4.840589569160998	69	127
4.852199546485261	4.968299319727891	71	127
4.979909297052155	5.072766439909297	68	127
5.072766439909297	5.2004761904761905	71	127
5.2004761904761905	5.3165986394557825	66	127
5.3165986394557825	5.432698412698413	71	127
5.444308390022676	5.572018140589569	64	127
5.572018140589569	5.722925170068027	76	127
5.722925170068027	5.850634920634921	75	127
5.850634920634921	5.966757369614513	73	127
5.978367346938776	6.106077097505669	71	127
6.117687074829932	6.233786848072563	76	127
6.233786848072563	6.361496598639456	75	127
6.361496598639456	6.477596371882086	73	127
6.489206349206349	6.6053061224489795	71	127
6.616916099773243	6.744625850340136	69	127
6.744625850340136	6.8723356009070296	68	127
6.8723356009070296	6.98843537414966	66	127
7.000045351473923	7.116145124716553	64	127
7.127755102040816	7.25546485260771	71	127
7.25546485260771	7.383174603174603	66	127
7.383174603174603	7.592154195011338	71	127
7.592154195011338	7.719863945578231	68	127
7.7430839002267575	7.859183673469388	71	127
7.859183673469388	7.975283446712018	69	127
7.975283446712018	8.126213151927438	71	127
8.126213151927438	8.230702947845804	68	127
8.242312925170069	8.346802721088435	71	127
8.358412698412698	8.462902494331066	66	127
8.462902494331066	8.602222222222222	71	127
8.602222222222222	8.718321995464853	64	127
8.729931972789116	8.846031746031747	76	127
8.857641723356009	8.97374149659864	75	127
8.97374149659864	9.113061224489796	73	127
9.113061224489796	9.229160997732427	71	127
9.240770975056689	9.35687074829932	76	127
9.368480725623582	9.472947845804988	75	127
9.472947845804988	9.600657596371882	73	127
9.600657596371882	9.728390022675738	71	127
9.74	9.844489795918367	69	127
9.856099773242631	9.97219954648526	68	127
9.97219954648526	10.088299319727891	66	127
10.099909297052154	10.227619047619047	64	127
10.227619047619047	10.35532879818594	66	127
10.35532879818594	10.448208616780045	68	127
10.45981859410431	10.564308390022676	69	127
10.575918367346938	10.69201814058957	71	127
10.69201814058957	10.784897959183674	73	127
10.784897959183674	10.900975056689342	75	127
10.912607709750567	11.017097505668934	76	127
11.017097505668934	11.12156462585034	78	127
11.12156462585034	11.249274376417233	80	127
11.249274376417233	11.365396825396825	81	127
11.376984126984127	11.493106575963719	78	127
11.504716553287983	11.644036281179138	80	127
11.644036281179138	11.771746031746032	83	127
11.771746031746032	11.899455782312925	76	127
11.899455782312925	12.015555555555556	78	127
12.027165532879819	12.061995464852608	80	127
12.061995464852608	12.166485260770974	81	127
12.166485260770974	12.294195011337868	83	127
12.294195011337868	12.410294784580499	85	127
12.421904761904761	12.52639455782313	87	127
12.538004535147392	12.654104308390023	88	127
12.654104308390023	12.781814058956916	85	127
12.781814058956916	12.955963718820861	87	127
12.99079365079365	13.095283446712019	88	127
13.118503401360543	13.246213151927437	83	127
13.246213151927437	13.37392290249433	81	127
13.37392290249433	13.513242630385488	83	127
13.513242630385488	13.594512471655328	80	127
13.606122448979592	13.722222222222221	83	127
13.733832199546486	13.849931972789115	81	127
13.849931972789115	13.977641723356008	83	127
13.977641723356008	14.070521541950113	80	127
14.082131519274377	14.198231292517006	83	127
14.221451247165533	14.337551020408164	78	127
14.337551020408164	14.44204081632653	83	127
14.44204081632653	14.47687074829932	76	127
14.47687074829932	14.59297052154195	88	127
14.604580498866213	14.732290249433106	87	127
14.732290249433106	14.929659863945579	85	127
14.929659863945579	15.057369614512472	83	127
15.068979591836735	15.185079365079366	76	127
15.196689342403628	15.31278911564626	85	127
15.31278911564626	15.440498866213153	76	127
15.440498866213153	15.568208616780046	83	127
15.568208616780046	15.684308390022675	76	127
15.69591836734694	15.812018140589569	81	127
15.823628117913833	15.951337868480726	76	127
15.951337868480726	16.079024943310657	80	127
16.079024943310657	16.20673469387755	83	127
16.218367346938777	16.334444444444443	78	127
16.34607709750567	16.462154195011337	83	127
16.462154195011337	16.566666666666666	80	127
16.566666666666666	16.671156462585035	83	127
16.705986394557822	16.822086167800453	81	127
16.833696145124716	16.984625850340137	83	127
16.984625850340137	17.11233560090703	80	127
17.11233560090703	17.240045351473924	83	127
17.240045351473924	17.356145124716555	78	127
17.367755102040817	17.48385487528345	83	127
17.49546485260771	17.553514739229026	76	127
17.553514739229026	17.61156462585034	88	127
17.61156462585034	17.72766439909297	87	127
17.739274376417235	17.8437641723356	85	127
17.8553514739229	17.971473922902494	83	127
17.971473922902494	18.099183673469387	76	127
18.099183673469387	18.215283446712018	85	127
18.22689342403628	18.34299319727891	76	127
18.354603174603174	18.482312925170067	83	127
18.482312925170067	18.621609977324262	76	127
18.621609977324262	18.784172335600907	81	127
18.784172335600907	18.923492063492063	76	127
18.935079365079364	19.09764172335601	80	127
19.10925170068027	19.248571428571427	76	127
19.260181405895693	19.318208616780044	76	127
19.318208616780044	19.469160997732427	76	127
19.341451247165534	19.67814058956916	75	127
19.469160997732427	19.852290249433107	76	127
19.736190476190476	19.98	76	127
19.86390022675737	20.13092970521542	76	127
19.98	20.258639455782312	78	127
20.13092970521542	20.386349206349205	76	127
20.270226757369613	20.5140589569161	75	127
20.397936507936507	20.63015873015873	76	127
20.5140589569161	20.757868480725623	76	127
20.63015873015873	20.885578231292516	76	127
20.757868480725623	21.01328798185941	80	127
20.89718820861678	21.12938775510204	76	127
21.024897959183672	21.257097505668934	78	127
21.12938775510204	21.373197278911565	76	127
21.257097505668934	21.50090702947846	80	127
21.384807256235828	21.628616780045352	76	127
21.51251700680272	21.756326530612245	81	127
21.628616780045352	21.872426303854876	76	127
21.756326530612245	22.00013605442177	78	127
21.88403628117914	22.139455782312925	76	127
22.011746031746032	22.27877551020408	80	127
22.139455782312925	22.394875283446712	76	127
22.27877551020408	22.522585034013606	76	127
22.406485260770975	22.6502947845805	76	127
22.534195011337868	22.778004535147392	75	127
22.6502947845805	22.905714285714286	76	127
22.778004535147392	23.021814058956917	76	127
22.905714285714286	23.14952380952381	76	127
23.03342403628118	23.277233560090703	78	127
23.161133786848072	23.31204081632653	76	127
23.277233560090703	23.42816326530612	75	127
23.31204081632653	23.474603174603175	76	127
23.439750566893423	23.53265306122449	76	127
23.474603174603175	23.660362811791384	76	127
23.53265306122449	23.776462585034015	80	127
23.660362811791384	23.904172335600908	76	127
23.788072562358277	24.0318820861678	78	127
23.91578231292517	24.159591836734695	76	127
24.0318820861678	24.29891156462585	80	127
24.159591836734695	24.41501133786848	76	127
24.29891156462585	24.542721088435375	81	127
24.426621315192744	24.68204081632653	76	127
24.542721088435375	24.809750566893424	78	127
24.68204081632653	24.925850340136055	76	127
24.809750566893424	25.05356009070295	80	127
24.937460317460317	25.18126984126984	76	127
25.06517006802721	25.18126984126984	80	127
25.18126984126984	25.308979591836735	76	127
25.308979591836735	25.52956916099773	80	127
25.43668934240363	25.645668934240362	76	127
25.52956916099773	25.645668934240362	80	127
25.645668934240362	25.773378684807255	76	127
25.773378684807255	26.028798185941042	80	127
25.924308390022677	26.156507936507936	76	127
26.040408163265305	26.156507936507936	80	127
26.156507936507936	26.28421768707483	76	127
26.28421768707483	26.528027210884353	80	127
26.423537414965985	26.655736961451247	76	127
26.539637188208616	26.655736961451247	80	127
26.66734693877551	26.795056689342402	75	127
26.795056689342402	27.027256235827664	80	127
26.911156462585033	27.143356009070295	76	127
27.027256235827664	27.143356009070295	80	127
27.154965986394558	27.24784580498866	75	127
27.24784580498866	27.503265306122447	80	127
27.375555555555554	27.630975056689344	76	127
27.514875283446713	27.630975056689344	80	127
27.642585034013607	27.758684807256238	75	127
27.758684807256238	28.00249433106576	80	127
27.88639455782313	28.11859410430839	76	127
28.00249433106576	28.11859410430839	80	127
28.13020408163265	28.23469387755102	74	127
28.23469387755102	28.478503401360545	80	127
28.362403628117914	28.594603174603176	76	127
28.478503401360545	28.594603174603176	80	127
28.606213151927438	28.69909297052154	74	127
28.710702947845807	28.954512471655327	80	127
28.826802721088434	29.07061224489796	76	127
28.954512471655327	29.07061224489796	80	127
29.08222222222222	29.18671201814059	74	127
29.198321995464852	29.40730158730159	81	127
29.291201814058958	29.523401360544216	76	127
29.40730158730159	29.523401360544216	81	127
29.535011337868482	29.65111111111111	73	127
29.662721088435376	29.918140589569163	81	127
29.79043083900227	30.045850340136056	76	127
29.918140589569163	30.045850340136056	81	127
30.045850340136056	30.161950113378683	73	127
30.17356009070295	30.428979591836736	81	127
30.312879818594105	30.55668934240363	76	127
30.428979591836736	30.55668934240363	81	127
30.55668934240363	30.684399092970523	73	127
30.696009070294785	30.951428571428572	81	127
30.83532879818594	31.079138321995465	76	127
30.951428571428572	31.079138321995465	81	127
31.079138321995465	31.20684807256236	71	127
31.21845804988662	31.462267573696145	81	127
31.346167800453514	31.58997732426304	76	127
31.462267573696145	31.58997732426304	81	127
31.58997732426304	31.729297052154195	71	127
31.729297052154195	31.98471655328798	81	127
31.86861678004535	32.112426303854875	76	127
31.98471655328798	32.112426303854875	81	127
32.112426303854875	32.24013605442177	71	127
32.24013605442177	32.495555555555555	80	127
32.379455782312924	32.62326530612245	76	127
32.50716553287982	32.62326530612245	80	127
32.62326530612245	32.72775510204082	71	127
32.72775510204082	32.983174603174604	80	127
32.86707482993197	33.12249433106576	76	127
32.994784580498866	33.12249433106576	80	127
33.12249433106576	33.23859410430839	71	127
33.23859410430839	33.482403628117915	80	127
33.366303854875284	33.598503401360546	76	127
33.49401360544218	33.598503401360546	80	127
33.598503401360546	33.702993197278914	71	127
33.702993197278914	33.94680272108844	80	127
33.83070294784581	34.07451247165533	76	127
33.9584126984127	34.07451247165533	80	127
34.086122448979594	34.202222222222225	69	127
34.202222222222225	34.43439909297052	80	127
34.32993197278912	34.562108843537416	76	127
34.446009070294785	34.562108843537416	80	127
34.57371882086168	34.68981859410431	69	127
34.68981859410431	34.93365079365079	80	127
34.8175283446712	35.061360544217685	76	127
34.945238095238096	35.061360544217685	80	127
35.07294784580499	35.177460317460316	69	127
35.177460317460316	35.4328798185941	78	127
35.30517006802721	35.54897959183673	76	127
35.4328798185941	35.54897959183673	78	127
35.560589569160996	35.67668934240363	69	127
35.67668934240363	35.92049886621315	78	127
35.80439909297052	36.03659863945578	76	127
35.92049886621315	36.03659863945578	78	127
36.048208616780045	36.164308390022676	69	127
36.17591836734694	36.39650793650794	78	127
36.28040816326531	36.500997732426306	76	127
36.39650793650794	36.500997732426306	78	127
36.500997732426306	36.61709750566894	69	127
36.6287074829932	36.872517006802724	78	127
36.74480725623583	36.97698412698413	76	127
36.872517006802724	36.97698412698413	78	127
36.988616780045355	37.093106575963716	68	127
37.10469387755102	37.3485260770975	78	127
37.22081632653061	37.4762358276644	76	127
37.3485260770975	37.4762358276644	78	127
37.4762358276644	37.60394557823129	68	127
37.615532879818595	37.847755102040814	78	127
37.731632653061226	37.97546485260771	76	127
37.847755102040814	37.97546485260771	78	127
37.97546485260771	38.09156462585034	68	127
38.1031746031746	38.33537414965986	76	127
38.230884353741494	38.463083900226756	76	127
38.33537414965986	38.463083900226756	76	127
38.463083900226756	38.567573696145125	68	127
38.57918367346939	38.788163265306125	76	127
38.672063492063494	38.91587301587302	76	127
38.788163265306125	38.91587301587302	76	127
38.91587301587302	39.04358276643991	68	127
39.04358276643991	39.287392290249436	76	127
39.171292517006805	39.41510204081633	76	127
39.287392290249436	39.41510204081633	76	127
39.41510204081633	39.54281179138322	68	127
39.54281179138322	39.74018140589569	76	127
39.62408163265306	39.86789115646258	76	127
39.75179138321995	39.86789115646258	76	127
39.86789115646258	39.99560090702948	66	127
39.99560090702948	40.239410430839	76	127
40.12331065759637	40.35551020408163	76	127
40.251020408163264	40.35551020408163	76	127
40.35551020408163	40.483219954648526	66	127
40.483219954648526	40.71541950113379	76	127
40.59931972789116	40.84312925170068	76	127
40.72702947845805	40.84312925170068	76	127
40.84312925170068	40.970839002267574	66	127
40.970839002267574	41.2146485260771	75	127
41.086938775510205	41.34235827664399	76	127
41.22625850340136	41.34235827664399	75	127
41.353968253968254	41.48167800453515	66	127
41.48167800453515	41.71387755102041	75	127
41.60938775510204	41.81836734693878	76	127
41.72548752834467	41.81836734693878	75	127
41.81836734693878	41.94607709750567	66	127
41.94607709750567	42.22471655328798	75	127
42.08539682539683	42.3756462585034	76	127
42.236326530612246	42.3756462585034	75	127
42.387256235827664	42.52657596371882	66	127
42.53818594104308	42.64267573696145	64	127
42.64267573696145	42.770385487528344	66	127
42.770385487528344	42.886485260770975	64	127
42.886485260770975	43.002585034013606	66	127
43.01419501133787	43.1302947845805	68	127
43.1302947845805	43.25800453514739	71	127
43.25800453514739	43.36249433106576	64	127
43.36249433106576	43.46698412698413	66	127
43.47859410430839	43.571451247165534	68	127
43.571451247165534	43.69916099773243	71	127
43.69916099773243	43.82687074829932	64	127
43.82687074829932	43.94299319727891	66	127
43.954580498866214	44.0707029478458	68	127
44.08229024943311	44.198412698412696	69	127
44.198412698412696	44.302902494331065	68	127
44.302902494331065	44.38417233560091	69	127
44.39578231292517	44.5118820861678	71	127
44.523492063492064	44.639591836734695	76	127
44.639591836734695	44.77891156462585	68	127
44.77891156462585	44.89501133786848	69	127
44.906621315192744	44.98789115646259	71	127
44.99950113378685	45.09235827664399	76	127
45.09235827664399	45.220068027210885	68	127
45.220068027210885	45.34777777777778	69	127
45.34777777777778	45.47548752834467	71	127
45.4871201814059	45.58	73	127
45.58	45.70770975056689	71	127
45.70770975056689	45.835419501133785	73	127
45.835419501133785	45.91668934240363	74	127
45.92829931972789	46.04439909297052	80	127
46.056009070294785	46.172108843537416	71	127
46.172108843537416	46.29981859410431	73	127
46.29981859410431	46.392698412698415	74	127
46.40430839002268	46.508798185941046	80	127
46.52040816326531	46.62487528344671	71	127
46.62487528344671	46.752585034013606	73	127
46.752585034013606	46.85709750566893	74	127
46.86868480725624	46.984807256235825	83	127
46.99639455782313	47.11251700680272	80	127
47.11251700680272	47.24022675736961	76	127
47.24022675736961	47.35632653061224	74	127
47.35632653061224	47.44920634920635	71	127
47.46081632653061	47.56530612244898	68	127
47.57691609977324	47.634965986394555	64	127
47.634965986394555	47.76267573696145	62	127
47.76267573696145	47.87877551020408	61	127
47.89038548752834	48.018095238095235	62	127
48.029705215419504	48.1574149659864	59	127
48.1574149659864	48.27351473922902	61	127
48.27351473922902	48.38961451247165	63	127
48.38961451247165	48.505714285714284	61	127
48.517324263038546	48.621814058956915	63	127
48.621814058956915	48.737913832199546	65	127
48.737913832199546	48.85401360544218	68	127
48.86562358276644	48.97011337868481	61	127
48.98172335600907	49.08621315192744	63	127
49.08621315192744	49.21392290249433	65	127
49.21392290249433	49.341632653061225	68	127
49.341632653061225	49.43451247165533	61	127
49.446122448979594	49.53900226757369	63	127
49.55061224489796	49.655102040816324	65	127
49.655102040816324	49.75959183673469	66	127
49.75959183673469	49.87569160997732	65	127
49.887301587301586	49.991791383219955	66	127
50.00340136054422	50.14272108843537	68	127
50.14272108843537	50.270430839002266	73	127
50.270430839002266	50.36331065759637	65	127
50.374920634920635	50.46780045351474	66	127
50.479410430839	50.595510204081634	68	127
50.595510204081634	50.72321995464853	73	127
50.72321995464853	50.83931972789116	65	127
50.83931972789116	50.94380952380953	66	127
50.95541950113379	51.05990929705215	68	127
51.07151927437642	51.17600907029478	69	127
51.17600907029478	51.28049886621315	68	127
51.28049886621315	51.408208616780044	69	127
51.408208616780044	51.524308390022675	71	127
51.53591836734694	51.66362811791383	77	127
51.66362811791383	51.77972789115646	68	127
51.77972789115646	51.87260770975057	69	127
51.88421768707483	51.9887074829932	71	127
52.00031746031746	52.11641723356009	77	127
52.11641723356009	52.23251700680272	68	127
52.23251700680272	52.33700680272109	69	127
52.348616780045354	52.464716553287985	71	127
52.47632653061225	52.59242630385488	80	127
52.59242630385488	52.7085260770975	77	127
52.7085260770975	52.836235827664396	73	127
52.836235827664396	52.95233560090703	83	127
52.96394557823129	53.08004535147392	80	127
53.09165532879818	53.207755102040814	81	127
53.207755102040814	53.34707482993197	78	127
53.34707482993197	53.45156462585034	77	127
53.4631746031746	53.56766439909297	80	127
53.57927437641723	53.67215419501134	73	127
53.67215419501134	53.776643990929706	71	127
53.776643990929706	53.86952380952381	69	127
53.881133786848075	53.985623582766436	73	127
53.997233560090706	54.11333333333334	69	127
54.11333333333334	54.2178231292517	66	127
54.2178231292517	54.34553287981859	78	127
54.34553287981859	54.46163265306122	75	127
54.473242630385485	54.55451247165533	76	127
54.56612244897959	54.68222222222222	73	127
54.68222222222222	54.79832199546485	72	127
54.79832199546485	54.90281179138322	75	127
54.90281179138322	55.01891156462585	68	127
55.030521541950115	55.146621315192746	66	127
55.146621315192746	55.27433106575964	64	127
55.27433106575964	55.39043083900227	68	127
55.40204081632653	55.518140589569164	64	127
55.529750566893426	55.61102040816326	61	127
55.61102040816326	55.71551020408163	64	127
55.71551020408163	55.83160997732426	68	127
55.843219954648525	55.959319727891156	73	127
55.97092970521542	56.08702947845805	68	127
56.08702947845805	56.179909297052156	76	127
56.179909297052156	56.29600907029479	73	127
56.29600907029479	56.41210884353742	80	127
56.42371882086168	56.53981859410431	73	127
56.55142857142857	56.65591836734694	72	127
56.65591836734694	56.74879818594104	75	127
56.74879818594104	56.86489795918367	72	127
56.876507936507934	56.93455782312925	68	127
56.946167800453516	57.06226757369615	80	127
57.06226757369615	57.2015873015873	79	127
57.2015873015873	57.329297052154196	80	127
57.34090702947846	57.480226757369614	79	127
57.50344671201814	57.60793650793651	80	127
57.60793650793651	57.72403628117914	75	127
57.72403628117914	57.816916099773245	76	127
57.816916099773245	57.933015873015876	73	127
