# onset,offset,note,velocity
0.5448979591836735	0.9744671201814059	60	127
0.9744671201814059	1.1718367346938776	59	127
1.1718367346938776	1.322766439909297	57	127
1.322766439909297	1.5201360544217688	55	127
1.5201360544217688	1.7058956916099772	53	127
1.7058956916099772	1.8452154195011339	52	127
1.8452154195011339	2.0309750566893423	50	127
2.0309750566893423	2.147074829931973	48	127
2.147074829931973	2.3444444444444446	43	127
2.3444444444444446	2.530204081632653	40	127
2.530204081632653	2.715963718820862	43	127
2.715963718820862	3.5634920634920637	36	127
3.5634920634920637	3.714421768707483	38	127
3.714421768707483	3.8769614512471655	40	127
3.8769614512471655	4.062721088435374	41	127
4.062721088435374	4.271700680272109	43	127
4.271700680272109	4.4458503401360545	45	127
4.4458503401360545	4.5967573696145125	47	127
4.5967573696145125	4.770907029478458	48	127
4.770907029478458	4.910249433106576	50	127
4.910249433106576	5.107619047619048	48	127
5.107619047619048	5.258548752834467	47	127
5.258548752834467	5.421065759637188	45	127
5.421065759637188	5.5836281179138325	43	127
5.5836281179138325	5.711337868480726	45	127
5.711337868480726	5.862267573696145	47	127
5.862267573696145	6.001587301587302	48	127
6.001587301587302	6.233786848072563	50	127
6.233786848072563	6.373106575963718	52	127
6.373106575963718	6.558866213151927	53	127
6.558866213151927	6.674965986394557	50	127
6.674965986394557	6.767845804988662	52	127
6.767845804988662	6.953605442176871	53	127
6.953605442176871	7.104535147392291	52	127
7.104535147392291	7.278684807256236	50	127
7.278684807256236	7.4412244897959186	48	127
7.4412244897959186	7.592154195011338	50	127
7.592154195011338	7.7779138321995465	52	127
7.7779138321995465	7.894013605442177	53	127
7.894013605442177	8.044920634920635	55	127
8.044920634920635	8.219092970521542	57	127
8.219092970521542	8.335192743764173	59	127
8.335192743764173	8.497732426303855	60	127
8.497732426303855	8.625442176870749	62	127
8.625442176870749	8.787981859410431	60	127
8.787981859410431	8.938911564625851	59	127
8.938911564625851	9.101451247165533	57	127
9.101451247165533	9.275600907029478	55	127
9.275600907029478	9.426530612244898	57	127
9.426530612244898	9.612290249433107	59	127
9.612290249433107	9.809659863945578	60	127
9.809659863945578	9.925759637188209	62	127
9.925759637188209	10.053469387755102	64	127
10.053469387755102	10.204399092970522	65	127
10.204399092970522	10.401768707482994	62	127
10.401768707482994	10.529478458049887	64	127
10.529478458049887	10.69201814058957	65	127
10.69201814058957	10.84294784580499	64	127
10.84294784580499	11.028707482993198	62	127
11.028707482993198	11.214444444444444	60	127
11.214444444444444	11.42344671201814	60	127
11.42344671201814	11.60920634920635	59	127
11.60920634920635	11.748526077097505	57	127
11.748526077097505	11.899455782312925	55	127
11.899455782312925	12.096825396825396	53	127
12.096825396825396	12.270975056689343	52	127
12.270975056689343	12.49156462585034	50	127
12.49156462585034	12.723764172335601	48	127
12.723764172335601	12.863083900226757	59	127
12.863083900226757	13.037233560090703	60	127
13.037233560090703	13.164943310657597	62	127
13.164943310657597	13.350702947845805	64	127
13.350702947845805	13.536462585034014	62	127
13.536462585034014	13.745442176870748	60	127
13.745442176870748	13.849931972789115	59	127
13.849931972789115	14.024081632653061	57	127
14.024081632653061	14.20984126984127	60	127
14.20984126984127	14.36077097505669	55	127
14.36077097505669	14.534920634920635	60	127
14.534920634920635	14.67424036281179	54	127
14.67424036281179	14.86	52	127
14.86	14.999319727891157	54	127
14.999319727891157	15.196689342403628	55	127
15.196689342403628	15.336009070294784	57	127
15.336009070294784	15.533378684807257	55	127
15.533378684807257	15.719138321995464	54	127
15.719138321995464	15.881678004535148	52	127
15.881678004535148	16.055827664399093	50	127
16.055827664399093	16.148684807256235	54	127
16.148684807256235	16.264807256235827	48	127
16.264807256235827	16.473786848072564	54	127
16.473786848072564	16.647936507936507	47	127
16.647936507936507	16.845283446712017	57	127
16.845283446712017	16.984625850340137	59	127
16.984625850340137	17.15875283446712	60	127
17.15875283446712	17.29809523809524	62	127
17.29809523809524	17.49546485260771	60	127
17.49546485260771	17.623174603174604	59	127
17.623174603174604	17.785714285714285	57	127
17.785714285714285	17.94825396825397	55	127
17.94825396825397	18.0643537414966	59	127
18.0643537414966	18.22689342403628	54	127
18.22689342403628	18.44748299319728	59	127
18.44748299319728	18.621609977324262	52	127
18.621609977324262	18.737732426303854	50	127
18.737732426303854	18.935079365079364	52	127
18.935079365079364	19.120861678004534	54	127
19.120861678004534	19.236961451247165	55	127
19.236961451247165	19.41111111111111	54	127
19.41111111111111	19.538820861678005	52	127
19.538820861678005	19.666530612244898	50	127
19.666530612244898	19.79424036281179	48	127
19.79424036281179	19.968390022675738	52	127
19.968390022675738	20.13092970521542	47	127
20.13092970521542	20.28185941043084	52	127
20.28185941043084	20.47922902494331	45	127
20.47922902494331	20.653356009070293	55	127
20.653356009070293	20.86235827664399	57	127
20.86235827664399	20.978458049886623	59	127
20.978458049886623	21.11777777777778	60	127
21.11777777777778	21.326757369614512	59	127
21.326757369614512	21.524126984126983	57	127
21.524126984126983	21.686666666666667	55	127
21.686666666666667	21.872426303854876	54	127
21.872426303854876	21.953696145124717	57	127
21.953696145124717	22.093015873015872	52	127
22.093015873015872	22.290385487528344	57	127
22.290385487528344	22.418095238095237	50	127
22.418095238095237	22.592244897959183	48	127
22.592244897959183	22.73156462585034	50	127
22.73156462585034	22.92891156462585	52	127
22.92891156462585	23.137913832199548	54	127
23.137913832199548	23.253990929705214	52	127
23.253990929705214	23.404943310657597	50	127
23.404943310657597	23.625532879818593	48	127
23.625532879818593	23.8112925170068	47	127
23.8112925170068	23.939002267573695	50	127
23.939002267573695	24.10154195011338	45	127
24.10154195011338	24.206031746031748	50	127
24.206031746031748	24.41501133786848	43	127
24.41501133786848	24.60077097505669	50	127
24.60077097505669	24.774920634920633	52	127
24.774920634920633	24.960680272108842	54	127
24.960680272108842	25.158049886621317	55	127
25.158049886621317	25.28575963718821	57	127
25.28575963718821	25.43668934240363	59	127
25.43668934240363	25.610839002267575	60	127
25.610839002267575	25.726938775510202	62	127
25.726938775510202	25.889478458049886	60	127
25.889478458049886	26.005578231292517	59	127
26.005578231292517	26.20294784580499	57	127
26.20294784580499	26.31904761904762	59	127
26.31904761904762	26.51641723356009	60	127
26.51641723356009	26.655736961451247	62	127
26.655736961451247	26.81827664399093	60	127
26.81827664399093	26.992426303854874	59	127
26.992426303854874	27.154965986394558	57	127
27.154965986394558	27.294285714285714	55	127
27.294285714285714	27.503265306122447	57	127
27.503265306122447	27.607755102040816	59	127
27.607755102040816	27.758684807256238	57	127
27.758684807256238	27.921224489795918	55	127
27.921224489795918	28.095374149659865	53	127
28.095374149659865	28.246303854875283	52	127
28.246303854875283	28.38562358276644	55	127
28.38562358276644	28.43206349206349	52	127
28.43206349206349	28.65265306122449	49	127
28.65265306122449	28.873242630385487	45	127
28.873242630385487	29.047392290249434	47	127
29.047392290249434	29.163492063492065	49	127
29.163492063492065	29.30281179138322	50	127
29.30281179138322	29.4653514739229	52	127
29.4653514739229	29.674331065759638	53	127
29.674331065759638	29.883310657596372	55	127
29.883310657596372	30.080680272108843	52	127
30.080680272108843	30.266439909297052	53	127
30.266439909297052	30.347709750566892	62	127
30.347709750566892	30.498639455782314	57	127
30.498639455782314	30.71922902494331	53	127
30.71922902494331	30.90498866213152	50	127
30.90498866213152	31.079138321995465	52	127
31.079138321995465	31.230068027210883	53	127
31.230068027210883	31.392607709750568	55	127
31.392607709750568	31.52031746031746	57	127
31.52031746031746	31.694467120181407	59	127
31.694467120181407	31.880226757369613	60	127
31.880226757369613	32.0427664399093	57	127
32.0427664399093	32.21691609977324	59	127
32.21691609977324	32.36784580498866	62	127
32.36784580498866	32.51877551020408	59	127
32.51877551020408	32.66968253968254	56	127
32.66968253968254	32.84385487528345	52	127
32.84385487528345	33.00639455782313	54	127
33.00639455782313	33.215374149659866	56	127
33.215374149659866	33.34308390022676	57	127
33.34308390022676	33.47079365079365	59	127
33.47079365079365	33.69138321995465	60	127
33.69138321995465	33.80746031746032	62	127
33.80746031746032	34.01646258503401	59	127
34.01646258503401	34.202222222222225	60	127
34.202222222222225	34.39959183673469	62	127
34.39959183673469	34.55052154195011	60	127
34.55052154195011	34.736281179138324	59	127
34.736281179138324	34.91043083900227	57	127
34.91043083900227	35.14263038548753	53	127
35.14263038548753	35.27034013605442	52	127
35.27034013605442	35.444489795918365	50	127
35.444489795918365	35.618639455782315	48	127
35.618639455782315	35.781179138321995	47	127
35.781179138321995	35.943718820861676	45	127
35.943718820861676	36.12947845804989	43	127
36.12947845804989	36.28040816326531	41	127
36.28040816326531	36.45455782312925	45	127
36.45455782312925	36.59385487528345	47	127
36.59385487528345	36.77963718820862	49	127
36.77963718820862	36.97698412698413	50	127
36.97698412698413	37.093106575963716	52	127
37.093106575963716	37.24403628117914	53	127
37.24403628117914	37.42979591836735	50	127
37.42979591836735	37.5691156462585	59	127
37.5691156462585	37.76648526077098	56	127
37.76648526077098	37.90580498866213	57	127
37.90580498866213	38.1031746031746	50	127
38.1031746031746	38.300544217687076	40	127
38.300544217687076	38.48630385487528	47	127
38.48630385487528	38.60240362811791	50	127
38.60240362811791	38.81138321995465	57	127
38.81138321995465	38.96231292517007	56	127
38.96231292517007	39.055192743764174	59	127
39.055192743764174	39.22934240362812	52	127
39.22934240362812	39.438321995464854	56	127
39.438321995464854	39.554421768707485	59	127
39.554421768707485	39.7053514739229	62	127
39.7053514739229	39.86789115646258	60	127
39.86789115646258	39.99560090702948	56	127
39.99560090702948	40.16975056689343	57	127
40.16975056689343	40.35551020408163	51	127
40.35551020408163	40.49482993197279	57	127
40.49482993197279	40.66897959183674	59	127
40.66897959183674	40.85473922902494	57	127
40.85473922902494	41.00566893424036	51	127
41.00566893424036	41.191428571428574	57	127
41.191428571428574	41.31913832199547	59	127
41.31913832199547	41.45845804988662	57	127
41.45845804988662	41.65582766439909	51	127
41.65582766439909	41.80673469387755	57	127
41.80673469387755	41.99251700680272	59	127
41.99251700680272	42.1550566893424	60	127
42.1550566893424	42.27115646258503	52	127
42.27115646258503	42.42208616780045	57	127
42.42208616780045	42.53818594104308	59	127
42.53818594104308	42.71233560090703	60	127
42.71233560090703	42.886485260770975	52	127
42.886485260770975	43.03741496598639	57	127
43.03741496598639	43.188321995464854	59	127
43.188321995464854	43.28122448979592	60	127
43.28122448979592	43.46698412698413	52	127
43.46698412698413	43.64113378684807	59	127
43.64113378684807	43.80367346938775	60	127
43.80367346938775	43.954580498866214	62	127
43.954580498866214	44.16358276643991	52	127
44.16358276643991	44.2912925170068	59	127
44.2912925170068	44.45383219954648	60	127
44.45383219954648	44.60476190476191	62	127
44.60476190476191	44.802131519274376	52	127
44.802131519274376	44.92984126984127	59	127
44.92984126984127	45.09235827664399	60	127
45.09235827664399	45.2665306122449	62	127
45.2665306122449	45.4871201814059	59	127
45.4871201814059	45.672879818594105	56	127
45.672879818594105	45.81219954648526	54	127
45.81219954648526	46.009569160997735	52	127
46.009569160997735	46.2069387755102	60	127
46.2069387755102	46.392698412698415	57	127
46.392698412698415	46.59006802721088	56	127
46.59006802721088	46.752585034013606	57	127
46.752585034013606	46.94997732426304	60	127
46.94997732426304	47.158956916099775	57	127
47.158956916099775	47.33310657596372	56	127
47.33310657596372	47.44920634920635	57	127
47.44920634920635	47.634965986394555	60	127
47.634965986394555	47.82072562358277	57	127
47.82072562358277	48.029705215419504	54	127
48.029705215419504	48.26190476190476	51	127
48.26190476190476	48.470884353741496	60	127
48.470884353741496	48.691473922902496	57	127
48.691473922902496	48.795963718820865	56	127
48.795963718820865	48.900453514739226	57	127
48.900453514739226	49.0978231292517	60	127
49.0978231292517	49.271972789115644	57	127
49.271972789115644	49.42290249433107	56	127
49.42290249433107	49.608662131519274	57	127
49.608662131519274	49.80603174603175	60	127
49.80603174603175	49.991791383219955	57	127
49.991791383219955	50.17755102040816	53	127
50.17755102040816	50.374920634920635	50	127
50.374920634920635	50.6071201814059	59	127
50.6071201814059	50.74643990929705	56	127
50.74643990929705	50.96702947845805	54	127
50.96702947845805	51.12956916099773	56	127
51.12956916099773	51.29210884353741	59	127
51.29210884353741	51.477868480725625	53	127
51.477868480725625	51.686848072562356	52	127
51.686848072562356	51.907437641723355	53	127
51.907437641723355	52.11641723356009	59	127
52.11641723356009	52.3021768707483	52	127
52.3021768707483	52.453106575963716	50	127
52.453106575963716	52.6156462585034	48	127
52.6156462585034	52.789795918367346	45	127
52.789795918367346	52.97555555555556	48	127
52.97555555555556	53.10326530612245	52	127
53.10326530612245	53.25419501133787	48	127
53.25419501133787	53.45156462585034	45	127
53.45156462585034	53.614104308390026	48	127
53.614104308390026	53.765034013605444	52	127
53.765034013605444	53.881133786848075	57	127
53.881133786848075	54.043673469387755	60	127
54.043673469387755	54.24104308390023	57	127
54.24104308390023	54.380362811791386	52	127
54.380362811791386	54.48485260770975	48	127
54.48485260770975	54.647392290249435	45	127
54.647392290249435	54.78671201814059	48	127
54.78671201814059	54.960861678004534	52	127
54.960861678004534	55.11179138321995	48	127
55.11179138321995	55.297551020408164	45	127
55.297551020408164	55.44848072562358	48	127
55.44848072562358	55.622630385487525	52	127
55.622630385487525	55.82	57	127
55.82	55.901269841269844	60	127
55.901269841269844	56.05219954648526	57	127
56.05219954648526	56.21473922902494	53	127
56.21473922902494	56.342448979591836	50	127
56.342448979591836	56.52820861678005	47	127
56.52820861678005	56.70235827664399	50	127
56.70235827664399	56.783628117913835	55	127
56.783628117913835	56.91133786848073	50	127
56.91133786848073	57.108707482993196	47	127
57.108707482993196	57.259637188208615	50	127
57.259637188208615	57.46861678004535	55	127
57.46861678004535	57.57310657596372	59	127
57.57310657596372	57.68920634920635	62	127
57.68920634920635	57.816916099773245	59	127
57.816916099773245	57.96784580498866	55	127
57.96784580498866	58.13038548752834	53	127
58.13038548752834	58.316145124716556	47	127
58.316145124716556	58.478684807256236	53	127
58.478684807256236	58.676054421768704	55	127
58.676054421768704	58.76893424036281	53	127
58.76893424036281	58.94308390022676	47	127
58.94308390022676	59.082403628117916	53	127
59.082403628117916	59.233333333333334	55	127
59.233333333333334	59.41909297052154	53	127
59.41909297052154	59.53519274376417	62	127
59.53519274376417	59.69773242630386	59	127
59.69773242630386	59.8718820861678	55	127
59.8718820861678	60.02281179138322	52	127
60.02281179138322	60.17374149659864	48	127
60.17374149659864	60.28984126984127	52	127
60.28984126984127	60.45238095238095	55	127
60.45238095238095	60.58009070294784	52	127
60.58009070294784	60.74263038548753	48	127
60.74263038548753	60.881950113378686	52	127
60.881950113378686	61.05609977324263	55	127
61.05609977324263	61.23024943310658	58	127
61.23024943310658	61.34634920634921	62	127
61.34634920634921	61.43922902494331	58	127
61.43922902494331	61.62498866213152	55	127
61.62498866213152	61.71786848072562	52	127
61.71786848072562	61.89201814058957	48	127
61.89201814058957	62.077777777777776	52	127
62.077777777777776	62.24031746031746	55	127
62.24031746031746	62.35641723356009	52	127
62.35641723356009	62.48412698412698	48	127
62.48412698412698	62.635056689342406	52	127
62.635056689342406	62.797596371882086	55	127
62.797596371882086	62.99496598639456	60	127
62.99496598639456	63.14589569160998	58	127
63.14589569160998	63.32004535147392	57	127
63.32004535147392	63.45936507936508	55	127
63.45936507936508	63.62190476190476	57	127
63.62190476190476	63.74961451247165	53	127
63.74961451247165	63.91215419501134	52	127
63.91215419501134	64.06308390022676	53	127
64.06308390022676	64.20240362811792	55	127
64.20240362811792	64.38816326530612	57	127
64.38816326530612	64.51587301587301	59	127
64.51587301587301	64.65519274376418	60	127
64.65519274376418	64.81770975056689	62	127
64.81770975056689	65.01510204081633	57	127
65.01510204081633	65.13120181405895	53	127
65.13120181405895	65.31696145124717	50	127
65.31696145124717	65.46789115646258	55	127
65.46789115646258	65.60721088435375	52	127
65.60721088435375	65.78136054421769	50	127
65.78136054421769	65.9438775510204	52	127
65.9438775510204	66.09480725623582	53	127
66.09480725623582	66.30380952380952	55	127
66.30380952380952	66.41990929705216	57	127
66.41990929705216	66.51278911564626	59	127
66.51278911564626	66.65210884353742	60	127
66.65210884353742	66.8146485260771	55	127
66.8146485260771	66.94235827664399	52	127
66.94235827664399	67.1281179138322	48	127
67.1281179138322	67.32548752834467	53	127
67.32548752834467	67.47639455782313	50	127
67.47639455782313	67.65056689342404	53	127
67.65056689342404	67.80149659863946	55	127
67.80149659863946	67.95242630385488	53	127
67.95242630385488	68.12657596371882	50	127
68.12657596371882	68.28911564625851	53	127
68.28911564625851	68.4748752834467	55	127
68.4748752834467	68.62578231292517	53	127
68.62578231292517	68.79995464852608	48	127
68.79995464852608	68.9160544217687	53	127
68.9160544217687	69.05537414965987	55	127
69.05537414965987	69.22952380952381	53	127
69.22952380952381	69.43850340136055	47	127
69.43850340136055	69.5778231292517	53	127
69.5778231292517	69.69392290249434	55	127
69.69392290249434	69.85646258503401	53	127
69.85646258503401	70.030589569161	45	127
70.030589569161	70.19315192743764	53	127
70.19315192743764	70.32086167800453	55	127
70.32086167800453	70.51820861678004	53	127
70.51820861678004	70.69238095238096	43	127
70.69238095238096	70.88975056689343	53	127
70.88975056689343	71.0871201814059	55	127
71.0871201814059	71.26126984126984	52	127
71.26126984126984	71.45863945578232	43	127
71.45863945578232	71.65600907029479	36	127
71.65600907029479	71.86498866213152	43	127
71.86498866213152	71.96947845804989	52	127
71.96947845804989	72.09718820861679	43	127
72.09718820861679	72.27133786848073	36	127
72.27133786848073	72.49192743764172	43	127
72.49192743764172	72.6660544217687	52	127
72.6660544217687	72.7937641723356	50	127
72.7937641723356	72.9098866213152	48	127
72.9098866213152	73.04918367346939	47	127
73.04918367346939	73.2233560090703	45	127
73.2233560090703	73.37428571428572	52	127
73.37428571428572	73.56002267573696	60	127
73.56002267573696	73.66453514739229	52	127
73.66453514739229	73.86190476190477	45	127
73.86190476190477	74.01283446712019	52	127
74.01283446712019	74.17537414965986	60	127
74.17537414965986	74.31469387755102	52	127
74.31469387755102	74.47723356009071	45	127
74.47723356009071	74.65138321995465	55	127
74.65138321995465	74.7907029478458	53	127
74.7907029478458	74.95324263038549	52	127
74.95324263038549	75.12739229024943	53	127
75.12739229024943	75.25510204081633	45	127
75.25510204081633	75.41764172335601	38	127
75.41764172335601	75.59179138321996	45	127
75.59179138321996	75.6730612244898	53	127
75.6730612244898	75.85879818594104	45	127
75.85879818594104	76.06780045351474	38	127
76.06780045351474	76.13746031746032	45	127
