# onset,offset,note,velocity
2.0658049886621317	2.2863718820861676	60	127
2.2863718820861676	2.7856009070294783	60	127
2.7856009070294783	3.0874829931972787	55	127
3.0874829931972787	3.2732426303854876	52	127
3.2732426303854876	3.5983219954648527	48	127
3.5983219954648527	3.784081632653061	43	127
3.784081632653061	4.027891156462585	40	127
4.027891156462585	4.271700680272109	36	127
4.271700680272109	4.46907029478458	60	127
4.46907029478458	4.724467120181406	62	127
4.724467120181406	4.933469387755102	60	127
4.933469387755102	5.188888888888889	59	127
5.188888888888889	5.444308390022676	60	127
5.444308390022676	5.839047619047619	62	127
5.839047619047619	6.059637188208617	59	127
6.059637188208617	6.3382766439909295	55	127
6.3382766439909295	6.558866213151927	50	127
6.558866213151927	6.767845804988662	47	127
6.767845804988662	7.023265306122449	43	127
7.023265306122449	7.278684807256236	41	127
7.278684807256236	7.592154195011338	62	127
7.592154195011338	7.859183673469388	60	127
7.859183673469388	8.068163265306122	59	127
8.068163265306122	8.277142857142858	57	127
8.277142857142858	8.579002267573696	55	127
8.579002267573696	8.811201814058958	60	127
8.811201814058958	9.043401360544218	59	127
9.043401360544218	9.310430839002267	57	127
9.310430839002267	9.50780045351474	55	127
9.50780045351474	9.77482993197279	53	127
9.77482993197279	10.041836734693877	52	127
10.041836734693877	10.2740589569161	53	127
10.2740589569161	10.483038548752834	50	127
10.483038548752834	10.703628117913832	43	127
10.703628117913832	10.959047619047618	57	127
10.959047619047618	11.168027210884354	55	127
11.168027210884354	11.365396825396825	53	127
11.365396825396825	11.562766439909296	52	127
11.562766439909296	11.783356009070294	50	127
11.783356009070294	12.027165532879819	48	127
12.027165532879819	12.294195011337868	47	127
12.294195011337868	12.561224489795919	48	127
12.561224489795919	12.851473922902494	43	127
12.851473922902494	13.664172335600908	36	127
13.664172335600908	13.791882086167801	48	127
13.791882086167801	13.931201814058957	50	127
13.931201814058957	14.186621315192744	52	127
14.186621315192744	14.488480725623583	54	127
14.488480725623583	14.732290249433106	47	127
14.732290249433106	14.964489795918368	50	127
14.964489795918368	15.196689342403628	55	127
15.196689342403628	15.463718820861677	57	127
15.463718820861677	15.684308390022675	59	127
15.684308390022675	15.881678004535148	60	127
15.881678004535148	16.102267573696146	56	127
16.102267573696146	16.357687074829933	62	127
16.357687074829933	16.601496598639457	52	127
16.601496598639457	16.833696145124716	62	127
16.833696145124716	17.031043083900226	60	127
17.031043083900226	17.228412698412697	59	127
17.228412698412697	17.46063492063492	60	127
17.46063492063492	17.716054421768707	59	127
17.716054421768707	17.936643990929706	57	127
17.936643990929706	18.14562358276644	56	127
18.14562358276644	18.366190476190475	57	127
18.366190476190475	18.621609977324262	52	127
18.621609977324262	18.853832199546485	48	127
18.853832199546485	19.086031746031747	50	127
19.086031746031747	19.306621315192743	52	127
19.306621315192743	19.503968253968253	48	127
19.503968253968253	19.78263038548753	45	127
19.78263038548753	20.038049886621316	43	127
20.038049886621316	20.28185941043084	42	127
20.28185941043084	20.47922902494331	45	127
20.47922902494331	20.66498866213152	50	127
20.66498866213152	20.89718820861678	52	127
20.89718820861678	21.23387755102041	54	127
21.23387755102041	21.43124716553288	55	127
21.43124716553288	21.69827664399093	57	127
21.69827664399093	21.942086167800454	54	127
21.942086167800454	22.151065759637188	50	127
22.151065759637188	22.371655328798187	60	127
22.371655328798187	22.58063492063492	59	127
22.58063492063492	22.84766439909297	57	127
22.84766439909297	23.103083900226757	59	127
23.103083900226757	23.34689342403628	57	127
23.34689342403628	23.567460317460316	55	127
23.567460317460316	23.776462585034015	54	127
23.776462585034015	23.99705215419501	55	127
23.99705215419501	24.194421768707482	50	127
24.194421768707482	24.473061224489797	47	127
24.473061224489797	24.68204081632653	48	127
24.68204081632653	24.902630385487527	50	127
24.902630385487527	25.16965986394558	47	127
25.16965986394558	25.378639455782313	43	127
25.378639455782313	25.587619047619047	41	127
25.587619047619047	25.959138321995464	40	127
25.959138321995464	26.272607709750567	55	127
26.272607709750567	26.458367346938775	57	127
26.458367346938775	26.655736961451247	55	127
26.655736961451247	26.841496598639456	54	127
26.841496598639456	27.08530612244898	55	127
27.08530612244898	27.375555555555554	48	127
27.375555555555554	27.58453514739229	50	127
27.58453514739229	27.81673469387755	48	127
27.81673469387755	28.072154195011336	47	127
28.072154195011336	28.292743764172336	45	127
28.292743764172336	28.53655328798186	43	127
28.53655328798186	28.73392290249433	42	127
28.73392290249433	28.954512471655327	57	127
28.954512471655327	29.22154195011338	59	127
29.22154195011338	29.40730158730159	57	127
29.40730158730159	29.639501133786847	55	127
29.639501133786847	29.84848072562358	57	127
29.84848072562358	30.080680272108843	48	127
30.080680272108843	30.301269841269843	52	127
30.301269841269843	30.568299319727892	50	127
30.568299319727892	30.80049886621315	48	127
30.80049886621315	30.974648526077097	47	127
30.974648526077097	31.311337868480727	45	127
31.311337868480727	31.566757369614514	43	127
31.566757369614514	31.833786848072563	59	127
31.833786848072563	32.0427664399093	60	127
32.0427664399093	32.25174603174603	59	127
32.25174603174603	32.530362811791385	52	127
32.530362811791385	32.75097505668934	59	127
32.75097505668934	32.95995464852608	45	127
32.95995464852608	33.2037641723356	60	127
33.2037641723356	33.41274376417233	62	127
33.41274376417233	33.61011337868481	60	127
33.61011337868481	33.80746031746032	54	127
33.80746031746032	33.99324263038549	60	127
33.99324263038549	34.28349206349206	47	127
34.28349206349206	34.585351473922906	62	127
34.585351473922906	34.78272108843537	64	127
34.78272108843537	35.061360544217685	62	127
35.061360544217685	35.281950113378684	60	127
35.281950113378684	35.45607709750567	59	127
35.45607709750567	35.67668934240363	57	127
35.67668934240363	35.96691609977324	55	127
35.96691609977324	36.22233560090703	53	127
36.22233560090703	36.41972789115646	52	127
36.41972789115646	36.64031746031746	53	127
36.64031746031746	36.83768707482993	50	127
36.83768707482993	37.04666666666667	36	127
37.04666666666667	37.27886621315193	53	127
37.27886621315193	37.55750566893424	52	127
37.55750566893424	37.74324263038549	50	127
37.74324263038549	38.021904761904764	52	127
38.021904761904764	38.2424716553288	48	127
38.2424716553288	38.451473922902494	47	127
38.451473922902494	38.66045351473923	48	127
38.66045351473923	38.881020408163266	50	127
38.881020408163266	39.10163265306122	52	127
39.10163265306122	39.380272108843535	54	127
39.380272108843535	39.600861678004534	55	127
39.600861678004534	39.86789115646258	45	127
39.86789115646258	40.12331065759637	50	127
40.12331065759637	40.33229024943311	52	127
40.33229024943311	40.541269841269845	54	127
40.541269841269845	40.7734693877551	55	127
40.7734693877551	40.98244897959184	57	127
40.98244897959184	41.31913832199547	43	127
41.31913832199547	41.516507936507935	52	127
41.516507936507935	41.72548752834467	54	127
41.72548752834467	41.91124716553288	55	127
41.91124716553288	42.14344671201814	57	127
42.14344671201814	42.44530612244898	59	127
42.44530612244898	42.886485260770975	38	127
42.886485260770975	43.14190476190476	60	127
43.14190476190476	43.39732426303855	57	127
43.39732426303855	43.606303854875286	60	127
43.606303854875286	43.94299319727891	54	127
43.94299319727891	44.16358276643991	60	127
44.16358276643991	44.360952380952384	50	127
44.360952380952384	44.60476190476191	60	127
44.60476190476191	44.92984126984127	57	127
44.92984126984127	45.103968253968254	60	127
45.103968253968254	45.37102040816327	54	127
45.37102040816327	45.63804988662132	60	127
45.63804988662132	45.893469387755104	50	127
45.893469387755104	46.14888888888889	58	127
46.14888888888889	46.38108843537415	55	127
46.38108843537415	46.59006802721088	58	127
46.59006802721088	46.83387755102041	54	127
46.83387755102041	47.05446712018141	58	127
47.05446712018141	47.35632653061224	50	127
47.35632653061224	47.588526077097505	58	127
47.588526077097505	47.86716553287982	55	127
47.86716553287982	48.134195011337866	58	127
48.134195011337866	48.3431746031746	54	127
48.3431746031746	48.55215419501134	58	127
48.55215419501134	48.85401360544218	51	127
48.85401360544218	49.05138321995465	57	127
49.05138321995465	49.33002267573696	55	127
49.33002267573696	49.55061224489796	57	127
49.55061224489796	49.74798185941043	54	127
49.74798185941043	50.00340136054422	57	127
50.00340136054422	50.258820861678004	51	127
50.258820861678004	50.479410430839	57	127
50.479410430839	50.711609977324265	55	127
50.711609977324265	51.0134693877551	57	127
51.0134693877551	51.33854875283447	54	127
51.33854875283447	51.80294784580499	57	127
51.80294784580499	52.09319727891157	60	127
52.09319727891157	52.38344671201814	57	127
52.38344671201814	52.59242630385488	54	127
52.59242630385488	52.824625850340134	50	127
52.824625850340134	53.09165532879818	45	127
53.09165532879818	53.3702947845805	42	127
53.3702947845805	54.380362811791386	38	127
54.380362811791386	54.61256235827664	50	127
54.61256235827664	54.86798185941043	54	127
54.86798185941043	55.11179138321995	57	127
55.11179138321995	55.40204081632653	59	127
55.40204081632653	55.599410430839	60	127
55.599410430839	55.843219954648525	62	127
55.843219954648525	56.09863945578231	57	127
56.09863945578231	56.37727891156462	59	127
56.37727891156462	56.59786848072562	55	127
56.59786848072562	56.7952380952381	57	127
56.7952380952381	57.097097505668934	59	127
57.097097505668934	57.29446712018141	60	127
57.29446712018141	57.53827664399093	55	127
57.53827664399093	57.7356462585034	57	127
57.7356462585034	58.10716553287982	54	127
58.10716553287982	58.409024943310655	55	127
58.409024943310655	58.66444444444444	50	127
58.66444444444444	58.94308390022676	52	127
58.94308390022676	59.22172335600907	48	127
59.22172335600907	59.47714285714286	45	127
59.47714285714286	59.69773242630386	54	127
59.69773242630386	61.33473922902494	43	127
61.33473922902494	61.77591836734694	60	127
61.77591836734694	62.031337868480726	60	127
62.031337868480726	62.21709750566893	55	127
62.21709750566893	62.414467120181406	52	127
62.414467120181406	62.66988662131519	48	127
62.66988662131519	62.89047619047619	43	127
62.89047619047619	63.227165532879816	40	127
63.227165532879816	63.505804988662135	36	127
63.505804988662135	63.714784580498865	60	127
63.714784580498865	63.97020408163265	62	127
63.97020408163265	64.17916099773242	60	127
64.17916099773242	64.42299319727891	59	127
64.42299319727891	64.70163265306122	60	127
64.70163265306122	65.0847619047619	62	127
65.0847619047619	65.27052154195012	59	127
65.27052154195012	65.50272108843538	55	127
65.50272108843538	65.78136054421769	50	127
65.78136054421769	66.08321995464853	47	127
66.08321995464853	66.30380952380952	43	127
66.30380952380952	66.501179138322	41	127
66.501179138322	66.75659863945579	62	127
66.75659863945579	67.01201814058957	60	127
67.01201814058957	67.25582766439909	59	127
67.25582766439909	67.4415873015873	57	127
67.4415873015873	67.84793650793651	55	127
67.84793650793651	68.1149433106576	60	127
68.1149433106576	68.32394557823129	59	127
68.32394557823129	68.5445351473923	57	127
68.5445351473923	68.77673469387756	55	127
68.77673469387756	68.99732426303855	53	127
68.99732426303855	69.31079365079366	52	127
69.31079365079366	69.5778231292517	53	127
69.5778231292517	69.78680272108843	50	127
69.78680272108843	70.0190022675737	43	127
70.0190022675737	70.30925170068028	57	127
70.30925170068028	70.51820861678004	55	127
70.51820861678004	70.76204081632653	53	127
70.76204081632653	71.02904761904762	52	127
71.02904761904762	71.26126984126984	50	127
71.26126984126984	71.48185941043084	48	127
71.48185941043084	71.74888888888889	47	127
71.74888888888889	71.98108843537415	48	127
71.98108843537415	72.29455782312925	43	127
72.29455782312925	73.09564625850341	36	127
73.09564625850341	73.1885260770975	48	127
73.1885260770975	73.3162358276644	50	127
73.3162358276644	73.59487528344671	52	127
73.59487528344671	73.81544217687075	54	127
73.81544217687075	74.08249433106576	47	127
74.08249433106576	74.27986394557823	50	127
74.27986394557823	74.52367346938776	55	127
74.52367346938776	74.77909297052155	57	127
74.77909297052155	75.04612244897959	59	127
75.04612244897959	75.28993197278912	60	127
75.28993197278912	75.53374149659864	56	127
75.53374149659864	75.7659410430839	62	127
75.7659410430839	75.98650793650793	52	127
75.98650793650793	76.19551020408163	62	127
76.19551020408163	76.40448979591837	60	127
76.40448979591837	76.65990929705215	59	127
76.65990929705215	76.90371882086168	60	127
76.90371882086168	77.21718820861678	59	127
77.21718820861678	77.40294784580499	57	127
77.40294784580499	77.61192743764173	56	127
77.61192743764173	77.79768707482994	57	127
77.79768707482994	78.05310657596372	52	127
78.05310657596372	78.26206349206349	48	127
78.26206349206349	78.51748299319728	50	127
78.51748299319728	78.78453514739229	52	127
78.78453514739229	79.00512471655328	48	127
79.00512471655328	79.23732426303854	45	127
79.23732426303854	79.44630385487528	43	127
79.44630385487528	79.71333333333334	42	127
79.71333333333334	79.9455328798186	45	127
79.9455328798186	80.21256235827664	50	127
80.21256235827664	80.43312925170068	52	127
80.43312925170068	80.72340136054422	54	127
80.72340136054422	80.93238095238095	55	127
80.93238095238095	81.16458049886621	57	127
81.16458049886621	81.39678004535148	54	127
81.39678004535148	81.62897959183674	50	127
81.62897959183674	81.90761904761905	60	127
81.90761904761905	82.16303854875284	59	127
82.16303854875284	82.3952380952381	57	127
82.3952380952381	82.65065759637189	59	127
82.65065759637189	82.91768707482993	57	127
82.91768707482993	83.13827664399093	55	127
83.13827664399093	83.35886621315193	54	127
83.35886621315193	83.60265306122449	55	127
83.60265306122449	83.84648526077098	50	127
83.84648526077098	84.07868480725624	47	127
84.07868480725624	84.28766439909298	48	127
84.28766439909298	84.53147392290249	50	127
84.53147392290249	84.79850340136055	47	127
84.79850340136055	85.05392290249434	43	127
85.05392290249434	85.2512925170068	41	127
85.2512925170068	85.59959183673469	40	127
85.59959183673469	85.84340136054422	55	127
85.84340136054422	86.06399092970521	57	127
86.06399092970521	86.29619047619047	55	127
86.29619047619047	86.52839002267574	54	127
86.52839002267574	86.760589569161	55	127
86.760589569161	86.99278911564626	48	127
86.99278911564626	87.21337868480725	50	127
87.21337868480725	87.46879818594104	48	127
87.46879818594104	87.68938775510205	47	127
87.68938775510205	87.94480725623583	45	127
87.94480725623583	88.18861678004535	43	127
88.18861678004535	88.38598639455782	42	127
88.38598639455782	88.6414058956916	57	127
88.6414058956916	88.86199546485261	59	127
88.86199546485261	89.1174149659864	57	127
89.1174149659864	89.40766439909297	55	127
89.40766439909297	89.62825396825397	57	127
89.62825396825397	89.81399092970521	48	127
89.81399092970521	90.13909297052155	52	127
90.13909297052155	90.35968253968254	50	127
90.35968253968254	90.58024943310657	48	127
90.58024943310657	90.75442176870749	47	127
90.75442176870749	90.98662131519275	45	127
90.98662131519275	91.20721088435374	43	127
91.20721088435374	91.55551020408163	59	127
91.55551020408163	91.74126984126984	60	127
91.74126984126984	91.92702947845805	59	127
91.92702947845805	92.21725623582766	52	127
92.21725623582766	92.46108843537415	59	127
92.46108843537415	92.68167800453514	45	127
92.68167800453514	92.89065759637188	60	127
92.89065759637188	93.13446712018141	62	127
93.13446712018141	93.33183673469388	60	127
93.33183673469388	93.54081632653062	54	127
93.54081632653062	93.81945578231293	60	127
93.81945578231293	94.05165532879819	47	127
94.05165532879819	94.41156462585035	62	127
94.41156462585035	94.62052154195011	64	127
94.62052154195011	94.81791383219955	62	127
94.81791383219955	95.01528344671202	60	127
95.01528344671202	95.29392290249433	59	127
95.29392290249433	95.52612244897959	57	127
95.52612244897959	95.73510204081633	55	127
95.73510204081633	95.99052154195012	53	127
95.99052154195012	96.2459410430839	52	127
96.2459410430839	96.45492063492064	53	127
96.45492063492064	96.73356009070295	50	127
96.73356009070295	96.95414965986394	36	127
96.95414965986394	97.15151927437641	53	127
97.15151927437641	97.39532879818594	52	127
97.39532879818594	97.60430839002268	50	127
97.60430839002268	97.88294784580499	52	127
97.88294784580499	98.11514739229025	48	127
98.11514739229025	98.3821768707483	47	127
98.3821768707483	98.59115646258503	48	127
98.59115646258503	98.86979591836734	50	127
98.86979591836734	99.1019954648526	52	127
99.1019954648526	99.33419501133787	54	127
99.33419501133787	99.56639455782313	55	127
99.56639455782313	99.83342403628117	45	127
99.83342403628117	100.06562358276643	50	127
100.06562358276643	100.25138321995465	52	127
100.25138321995465	100.5184126984127	54	127
100.5184126984127	100.76222222222222	55	127
100.76222222222222	100.94798185941043	57	127
100.94798185941043	101.48204081632653	43	127
101.48204081632653	101.679410430839	52	127
101.679410430839	101.87678004535148	54	127
101.87678004535148	102.0857596371882	55	127
102.0857596371882	102.34117913832199	57	127
102.34117913832199	102.53854875283447	59	127
102.53854875283447	102.87523809523809	38	127
102.87523809523809	103.26997732426304	60	127
103.26997732426304	103.51378684807256	57	127
103.51378684807256	103.73437641723356	60	127
103.73437641723356	104.09428571428572	54	127
104.09428571428572	104.31487528344671	60	127
104.31487528344671	104.5702947845805	50	127
104.5702947845805	104.80249433106576	60	127
104.80249433106576	105.02308390022675	57	127
105.02308390022675	105.24367346938776	60	127
105.24367346938776	105.49909297052154	54	127
105.49909297052154	105.71968253968254	60	127
105.71968253968254	106.16086167800454	50	127
106.16086167800454	106.38145124716553	58	127
106.38145124716553	106.57882086167801	55	127
106.57882086167801	106.82263038548753	58	127
106.82263038548753	107.07804988662132	54	127
107.07804988662132	107.28702947845805	58	127
107.28702947845805	107.56566893424036	50	127
107.56566893424036	107.80947845804988	58	127
107.80947845804988	108.00684807256236	55	127
108.00684807256236	108.26226757369615	58	127
108.26226757369615	108.48285714285714	54	127
108.48285714285714	108.7150566893424	58	127
108.7150566893424	109.04013605442177	51	127
109.04013605442177	109.27233560090703	57	127
109.27233560090703	109.48131519274376	55	127
109.48131519274376	109.85283446712018	57	127
109.85283446712018	110.05020408163266	54	127
110.05020408163266	110.24757369614512	57	127
110.24757369614512	110.46816326530612	51	127
110.46816326530612	110.71197278911565	57	127
110.71197278911565	111.01383219954648	55	127
111.01383219954648	111.31569160997732	57	127
111.31569160997732	111.64077097505668	54	127
111.64077097505668	112.03551020408163	57	127
112.03551020408163	112.37219954648526	60	127
112.37219954648526	112.59278911564626	57	127
112.59278911564626	112.79015873015874	54	127
112.79015873015874	113.12684807256235	50	127
113.12684807256235	113.35904761904762	45	127
113.35904761904762	113.67251700680272	42	127
113.67251700680272	114.64775510204082	38	127
114.64775510204082	114.96122448979592	50	127
114.96122448979592	115.17020408163265	54	127
115.17020408163265	115.44884353741497	57	127
115.44884353741497	115.69265306122449	59	127
115.69265306122449	115.98290249433107	60	127
115.98290249433107	116.29637188208616	62	127
116.29637188208616	116.51696145124717	57	127
116.51696145124717	116.74916099773243	59	127
116.74916099773243	116.9465306122449	55	127
116.9465306122449	117.26	57	127
117.26	117.49219954648527	59	127
117.49219954648527	117.86371882086168	60	127
117.86371882086168	118.07269841269841	55	127
118.07269841269841	118.30489795918368	57	127
118.30489795918368	118.61836734693877	54	127
