# onset,offset,note,velocity
1.9497052154195011	2.3908843537414968	58	127
2.3908843537414968	2.739183673469388	63	127
2.739183673469388	2.9017233560090703	62	127
2.9017233560090703	3.110702947845805	60	127
3.110702947845805	3.2848526077097504	58	127
3.2848526077097504	3.447392290249433	56	127
3.447392290249433	3.6215419501133788	55	127
3.6215419501133788	3.807301587301587	56	127
3.807301587301587	3.9582312925170067	58	127
3.9582312925170067	4.109160997732427	56	127
4.109160997732427	4.283310657596372	55	127
4.283310657596372	4.434240362811791	53	127
4.434240362811791	4.5967573696145125	51	127
4.5967573696145125	4.7477097505668935	50	127
4.7477097505668935	4.8986167800453515	48	127
4.8986167800453515	5.072766439909297	46	127
5.072766439909297	5.27015873015873	48	127
5.27015873015873	5.444308390022676	51	127
5.444308390022676	5.6184580498866215	53	127
5.6184580498866215	5.7693877551020405	55	127
5.7693877551020405	5.897074829931973	56	127
5.897074829931973	6.048027210884354	55	127
6.048027210884354	6.198956916099773	53	127
6.198956916099773	6.361496598639456	51	127
6.361496598639456	6.558866213151927	50	127
6.558866213151927	6.72140589569161	51	127
6.72140589569161	6.918775510204082	53	127
6.918775510204082	7.092925170068027	50	127
7.092925170068027	7.499274376417233	46	127
7.499274376417233	7.812743764172335	44	127
7.812743764172335	7.975283446712018	43	127
7.975283446712018	8.126213151927438	46	127
8.126213151927438	8.300340136054421	48	127
8.300340136054421	8.451292517006802	50	127
8.451292517006802	8.753151927437642	51	127
8.753151927437642	9.194331065759638	61	127
9.194331065759638	9.577460317460318	44	127
9.577460317460318	9.89092970521542	60	127
9.89092970521542	10.285668934240363	53	127
10.285668934240363	10.610748299319727	51	127
10.610748299319727	10.761678004535147	41	127
10.761678004535147	10.92421768707483	44	127
10.92421768707483	11.07514739229025	46	127
11.07514739229025	11.249274376417233	48	127
11.249274376417233	11.6556462585034	50	127
11.6556462585034	11.969115646258503	60	127
11.969115646258503	12.410294784580499	43	127
12.410294784580499	12.677324263038548	58	127
12.677324263038548	12.99079365079365	51	127
12.99079365079365	13.327482993197279	50	127
13.327482993197279	13.490022675736961	39	127
13.490022675736961	13.664172335600908	43	127
13.664172335600908	13.803492063492063	44	127
13.803492063492063	13.954421768707483	46	127
13.954421768707483	14.36077097505669	48	127
14.36077097505669	14.813560090702948	58	127
14.813560090702948	15.138639455782313	41	127
15.138639455782313	15.452108843537415	56	127
15.452108843537415	15.753968253968255	50	127
15.753968253968255	15.881678004535148	58	127
15.881678004535148	16.032607709750568	56	127
16.032607709750568	16.183537414965986	55	127
16.183537414965986	16.334444444444443	53	127
16.334444444444443	16.50861678004535	51	127
16.50861678004535	16.647936507936507	55	127
16.647936507936507	16.81047619047619	53	127
16.81047619047619	16.96140589569161	51	127
16.96140589569161	17.11233560090703	50	127
17.11233560090703	17.26326530612245	53	127
17.26326530612245	18.389433106575964	51	127
17.26326530612245	18.0643537414966	46	127
17.26326530612245	18.0643537414966	39	127
18.389433106575964	18.679659863945577	53	127
18.679659863945577	18.83061224489796	50	127
18.83061224489796	18.99315192743764	51	127
18.99315192743764	19.155691609977325	53	127
19.155691609977325	19.37628117913832	51	127
19.37628117913832	19.538820861678005	50	127
19.538820861678005	19.701337868480724	48	127
19.701337868480724	19.852290249433107	46	127
19.852290249433107	20.014807256235827	48	127
20.014807256235827	20.17736961451247	50	127
20.17736961451247	20.32829931972789	51	127
20.32829931972789	20.490839002267574	53	127
20.490839002267574	20.66498866213152	55	127
20.66498866213152	20.839115646258502	56	127
20.839115646258502	20.978458049886623	53	127
20.978458049886623	21.12938775510204	55	127
21.12938775510204	21.291927437641725	53	127
21.291927437641725	21.466077097505668	51	127
21.466077097505668	21.61700680272109	53	127
21.61700680272109	21.77954648526077	55	127
21.77954648526077	21.918843537414965	53	127
21.918843537414965	22.08140589569161	51	127
22.08140589569161	22.232312925170067	50	127
22.232312925170067	22.406485260770975	48	127
22.406485260770975	22.592244897959183	50	127
22.592244897959183	22.74315192743764	51	127
22.74315192743764	22.905714285714286	53	127
22.905714285714286	23.06825396825397	55	127
23.06825396825397	23.242403628117913	57	127
23.242403628117913	23.404943310657597	58	127
23.404943310657597	23.602312925170068	55	127
23.602312925170068	23.73002267573696	57	127
23.73002267573696	23.91578231292517	55	127
23.91578231292517	24.089931972789117	53	127
24.089931972789117	24.252471655328797	55	127
24.252471655328797	24.40340136054422	57	127
24.40340136054422	24.531111111111112	55	127
24.531111111111112	24.68204081632653	53	127
24.68204081632653	24.844580498866215	51	127
24.844580498866215	25.28575963718821	50	127
25.28575963718821	25.6340589569161	60	127
25.6340589569161	25.796598639455784	43	127
25.796598639455784	25.947528344671202	46	127
25.947528344671202	26.110068027210886	48	127
26.110068027210886	26.260997732426304	50	127
26.260997732426304	26.562857142857144	51	127
26.562857142857144	26.934376417233562	62	127
26.934376417233562	27.178185941043083	60	127
27.178185941043083	27.340725623582767	58	127
27.340725623582767	27.503265306122447	57	127
27.503265306122447	27.66580498866213	55	127
27.66580498866213	28.03732426303855	53	127
28.03732426303855	28.33918367346939	63	127
28.33918367346939	28.513333333333332	46	127
28.513333333333332	28.675873015873016	50	127
28.675873015873016	28.861632653061225	51	127
28.861632653061225	29.059002267573696	53	127
29.059002267573696	29.3724716553288	55	127
29.3724716553288	29.778820861678003	65	127
29.778820861678003	29.95297052154195	63	127
29.95297052154195	30.115510204081634	62	127
30.115510204081634	30.278049886621314	60	127
30.278049886621314	30.41736961451247	58	127
30.41736961451247	30.7540589569161	57	127
30.7540589569161	31.160408163265306	67	127
31.160408163265306	31.334557823129252	65	127
31.334557823129252	31.497097505668933	63	127
31.497097505668933	31.659637188208617	62	127
31.659637188208617	31.8221768707483	60	127
31.8221768707483	32.170476190476194	58	127
32.170476190476194	32.495555555555555	56	127
32.495555555555555	32.66968253968254	55	127
32.66968253968254	32.832244897959185	53	127
32.832244897959185	33.01800453514739	51	127
33.01800453514739	33.16891156462585	50	127
33.16891156462585	33.55204081632653	48	127
33.55204081632653	33.94680272108844	46	127
33.94680272108844	34.16739229024943	45	127
34.16739229024943	34.446009070294785	51	127
34.446009070294785	35.15424036281179	55	127
35.15424036281179	35.31678004535147	53	127
35.31678004535147	35.502539682539684	51	127
35.502539682539684	35.71149659863946	50	127
35.71149659863946	35.90888888888889	48	127
35.90888888888889	36.048208616780045	46	127
36.048208616780045	36.21072562358277	50	127
36.21072562358277	36.36167800453515	48	127
36.36167800453515	36.52421768707483	46	127
36.52421768707483	36.68675736961451	45	127
36.68675736961451	36.814467120181405	48	127
36.814467120181405	37.00022675736962	46	127
37.00022675736962	37.1627664399093	50	127
37.1627664399093	37.33691609977324	48	127
37.33691609977324	37.49945578231293	46	127
37.49945578231293	37.65038548752835	48	127
37.65038548752835	37.82453514739229	51	127
37.82453514739229	37.98705215419501	50	127
37.98705215419501	38.138004535147395	48	127
38.138004535147395	38.300544217687076	50	127
38.300544217687076	38.463083900226756	51	127
38.463083900226756	38.683673469387756	53	127
38.683673469387756	38.86943310657596	55	127
38.86943310657596	39.20612244897959	56	127
39.20612244897959	39.57764172335601	46	127
39.57764172335601	40.018798185941044	39	127
40.018798185941044	40.34390022675737	56	127
40.34390022675737	40.49482993197279	55	127
40.49482993197279	40.680589569161	53	127
40.680589569161	40.85473922902494	51	127
40.85473922902494	41.028888888888886	50	127
41.028888888888886	41.203038548752836	48	127
41.203038548752836	41.37718820861678	50	127
41.37718820861678	41.5281179138322	51	127
41.5281179138322	41.737097505668935	53	127
41.737097505668935	42.09700680272109	55	127
42.09700680272109	42.42208616780045	58	127
42.42208616780045	42.60784580498866	57	127
42.60784580498866	42.75877551020408	58	127
42.75877551020408	42.94451247165533	60	127
42.94451247165533	43.09546485260771	58	127
43.09546485260771	43.24639455782313	57	127
43.24639455782313	43.40893424036281	55	127
43.40893424036281	43.55986394557823	53	127
43.55986394557823	43.74562358276644	51	127
43.74562358276644	43.919773242630384	50	127
43.919773242630384	44.08229024943311	48	127
44.08229024943311	44.24485260770975	46	127
44.24485260770975	44.40739229024943	50	127
44.40739229024943	44.54671201814059	48	127
44.54671201814059	44.70922902494331	46	127
44.70922902494331	44.88340136054422	45	127
44.88340136054422	45.03433106575964	48	127
45.03433106575964	46.218548752834465	46	127
46.218548752834465	46.59006802721088	58	127
46.59006802721088	46.9615873015873	63	127
46.9615873015873	47.11251700680272	62	127
47.11251700680272	47.27505668934241	60	127
47.27505668934241	47.425986394557825	58	127
47.425986394557825	47.588526077097505	56	127
47.588526077097505	47.78589569160998	55	127
47.78589569160998	47.94843537414966	56	127
47.94843537414966	48.09936507936508	58	127
48.09936507936508	48.238684807256234	56	127
48.238684807256234	48.38961451247165	55	127
48.38961451247165	48.61020408163265	53	127
48.61020408163265	48.784353741496595	51	127
48.784353741496595	48.93528344671202	50	127
48.93528344671202	49.08621315192744	48	127
49.08621315192744	49.23714285714286	46	127
49.23714285714286	49.39968253968254	48	127
49.39968253968254	49.53900226757369	51	127
49.53900226757369	49.74798185941043	53	127
49.74798185941043	49.89891156462585	55	127
49.89891156462585	50.02662131519274	56	127
50.02662131519274	50.20077097505669	55	127
50.20077097505669	50.374920634920635	53	127
50.374920634920635	50.6071201814059	51	127
50.6071201814059	50.816099773242634	50	127
50.816099773242634	50.96702947845805	51	127
50.96702947845805	51.141179138321995	53	127
51.141179138321995	51.28049886621315	50	127
51.28049886621315	51.59396825396826	46	127
51.59396825396826	51.907437641723355	44	127
51.907437641723355	52.10480725623583	43	127
52.10480725623583	52.3021768707483	46	127
52.3021768707483	52.47632653061225	48	127
52.47632653061225	52.63886621315193	50	127
52.63886621315193	52.98716553287982	51	127
52.98716553287982	53.31224489795918	61	127
53.31224489795918	53.75342403628118	44	127
53.75342403628118	54.11333333333334	60	127
54.11333333333334	54.48485260770975	53	127
54.48485260770975	54.79832199546485	51	127
54.79832199546485	54.960861678004534	41	127
54.960861678004534	55.11179138321995	44	127
55.11179138321995	55.25111111111111	46	127
55.25111111111111	55.39043083900227	48	127
55.39043083900227	55.80839002267574	50	127
55.80839002267574	56.179909297052156	60	127
56.179909297052156	56.493378684807254	43	127
56.493378684807254	56.86489795918367	58	127
56.86489795918367	57.18997732426304	51	127
57.18997732426304	57.5150566893424	50	127
57.5150566893424	57.67759637188209	39	127
57.67759637188209	57.82852607709751	43	127
57.82852607709751	57.99106575963719	44	127
57.99106575963719	58.141995464852606	46	127
58.141995464852606	58.53673469387755	48	127
58.53673469387755	58.82698412698413	58	127
58.82698412698413	59.175283446712015	41	127
59.175283446712015	59.52358276643991	56	127
59.52358276643991	59.8718820861678	50	127
59.8718820861678	60.02281179138322	58	127
60.02281179138322	60.19696145124716	56	127
60.19696145124716	60.34789115646259	55	127
60.34789115646259	60.545260770975055	53	127
60.545260770975055	60.69619047619047	51	127
60.69619047619047	60.82390022675737	55	127
60.82390022675737	60.96321995464853	53	127
60.96321995464853	61.12575963718821	51	127
61.12575963718821	61.27668934240363	50	127
61.27668934240363	61.43922902494331	53	127
61.43922902494331	62.35641723356009	46	127
61.43922902494331	62.35641723356009	39	127
61.43922902494331	62.64666666666667	51	127
62.64666666666667	62.87886621315193	53	127
62.87886621315193	63.04140589569161	50	127
63.04140589569161	63.20394557823129	51	127
63.20394557823129	63.36648526077097	53	127
63.36648526077097	63.54063492063492	51	127
63.54063492063492	63.72639455782313	50	127
63.72639455782313	63.90054421768708	48	127
63.90054421768708	64.05145124716553	46	127
64.05145124716553	64.2372335600907	48	127
64.2372335600907	64.39977324263039	50	127
64.39977324263039	64.57392290249433	51	127
64.57392290249433	64.73646258503402	53	127
64.73646258503402	64.89900226757369	55	127
64.89900226757369	65.04993197278911	56	127
65.04993197278911	65.23569160997732	53	127
65.23569160997732	65.38662131519274	55	127
65.38662131519274	65.54916099773243	53	127
65.54916099773243	65.70009070294785	51	127
65.70009070294785	65.89746031746031	53	127
65.89746031746031	66.0715873015873	55	127
66.0715873015873	66.22251700680272	53	127
66.22251700680272	66.40829931972789	51	127
66.40829931972789	66.58242630385487	50	127
66.58242630385487	66.73335600907029	48	127
66.73335600907029	66.89591836734694	50	127
66.89591836734694	67.05845804988662	51	127
67.05845804988662	67.20938775510204	53	127
67.20938775510204	67.38353741496599	55	127
67.38353741496599	67.58090702947845	57	127
67.58090702947845	67.74344671201814	58	127
67.74344671201814	67.8827664399093	55	127
67.8827664399093	68.04530612244898	57	127
68.04530612244898	68.24265306122449	55	127
68.24265306122449	68.40521541950113	53	127
68.40521541950113	68.56775510204082	55	127
68.56775510204082	68.71868480725624	57	127
68.71868480725624	68.89283446712018	55	127
68.89283446712018	69.05537414965987	53	127
69.05537414965987	69.26433106575963	51	127
69.26433106575963	69.61265306122449	50	127
69.61265306122449	69.91451247165533	60	127
69.91451247165533	70.08866213151927	43	127
70.08866213151927	70.23959183673469	46	127
70.23959183673469	70.4253514739229	48	127
70.4253514739229	70.59950113378684	50	127
70.59950113378684	70.93619047619048	51	127
70.93619047619048	71.2728798185941	62	127
71.2728798185941	71.51668934240362	60	127
71.51668934240362	71.66759637188208	58	127
71.66759637188208	71.841768707483	57	127
71.841768707483	72.00430839002267	55	127
72.00430839002267	72.42226757369615	53	127
72.42226757369615	72.72412698412698	63	127
72.72412698412698	72.88666666666667	46	127
72.88666666666667	73.07240362811791	50	127
73.07240362811791	73.23496598639456	51	127
73.23496598639456	73.4439455782313	53	127
73.4439455782313	73.81544217687075	55	127
73.81544217687075	74.14054421768708	65	127
74.14054421768708	74.2914739229025	63	127
74.2914739229025	74.44240362811792	62	127
74.44240362811792	74.61655328798186	60	127
74.61655328798186	74.80231292517007	58	127
74.80231292517007	75.18544217687075	57	127
75.18544217687075	75.55696145124716	67	127
75.55696145124716	75.71950113378685	65	127
75.71950113378685	75.88204081632654	63	127
75.88204081632654	76.04458049886621	62	127
76.04458049886621	76.19551020408163	60	127
76.19551020408163	76.56702947845805	58	127
76.56702947845805	77.00818594104308	56	127
77.00818594104308	77.15913832199547	55	127
77.15913832199547	77.33328798185941	53	127
77.33328798185941	77.47260770975056	51	127
77.47260770975056	77.63514739229025	50	127
77.63514739229025	78.05310657596372	48	127
78.05310657596372	78.4362358276644	46	127
78.4362358276644	78.69165532879819	45	127
78.69165532879819	78.98190476190476	51	127
78.98190476190476	79.7249433106576	55	127
79.7249433106576	79.89907029478458	53	127
79.89907029478458	80.06163265306122	51	127
80.06163265306122	80.28219954648526	50	127
80.28219954648526	80.4795918367347	48	127
80.4795918367347	80.64213151927437	46	127
80.64213151927437	80.79303854875283	50	127
80.79303854875283	80.95560090702948	48	127
80.95560090702948	81.15297052154195	46	127
81.15297052154195	81.3038775510204	45	127
81.3038775510204	81.46643990929705	48	127
81.46643990929705	81.60575963718821	46	127
81.60575963718821	81.77990929705216	50	127
81.77990929705216	81.93083900226758	48	127
81.93083900226758	82.10498866213152	46	127
82.10498866213152	82.2675283446712	48	127
82.2675283446712	82.44167800453515	51	127
82.44167800453515	82.59260770975057	50	127
82.59260770975057	82.77836734693878	48	127
82.77836734693878	82.99895691609977	50	127
82.99895691609977	83.14988662131519	51	127
83.14988662131519	83.3472335600907	53	127
83.3472335600907	83.52140589569161	55	127
83.52140589569161	83.83485260770975	56	127
83.83485260770975	84.17156462585034	46	127
84.17156462585034	84.60111111111111	39	127
84.60111111111111	84.89138321995465	56	127
84.89138321995465	85.06553287981859	55	127
85.06553287981859	85.22807256235828	53	127
85.22807256235828	85.36736961451247	51	127
85.36736961451247	85.55315192743764	50	127
85.55315192743764	85.71569160997733	48	127
85.71569160997733	85.88984126984127	50	127
85.88984126984127	86.06399092970521	51	127
86.06399092970521	86.26133786848072	53	127
86.26133786848072	86.62124716553288	55	127
86.62124716553288	86.92312925170069	58	127
86.92312925170069	87.12049886621315	57	127
87.12049886621315	87.27142857142857	58	127
87.27142857142857	87.46879818594104	60	127
87.46879818594104	87.63133786848073	58	127
87.63133786848073	87.78226757369615	57	127
87.78226757369615	87.93319727891156	55	127
87.93319727891156	88.11895691609978	53	127
88.11895691609978	88.28147392290249	51	127
88.28147392290249	88.46725623582766	50	127
88.46725623582766	88.62979591836735	48	127
88.62979591836735	88.79231292517007	46	127
88.79231292517007	88.94326530612246	50	127
88.94326530612246	89.0825850340136	48	127
89.0825850340136	89.24512471655329	46	127
89.24512471655329	89.47732426303855	45	127
89.47732426303855	89.62825396825397	48	127
89.62825396825397	90.77764172335601	46	127
90.77764172335601	91.23043083900227	53	127
91.23043083900227	91.61356009070295	58	127
91.61356009070295	91.78770975056689	57	127
91.78770975056689	91.92702947845805	55	127
91.92702947845805	92.07795918367347	53	127
92.07795918367347	92.21725623582766	51	127
92.21725623582766	92.42625850340136	50	127
92.42625850340136	92.55396825396825	51	127
92.55396825396825	92.70489795918367	53	127
92.70489795918367	92.86743764172336	51	127
92.86743764172336	93.01836734693877	50	127
93.01836734693877	93.16929705215419	48	127
93.16929705215419	93.33183673469388	46	127
93.33183673469388	93.51759637188209	44	127
93.51759637188209	93.68013605442177	43	127
93.68013605442177	93.85426303854875	41	127
93.85426303854875	94.02843537414967	43	127
94.02843537414967	94.17936507936508	51	127
94.17936507936508	94.34190476190476	53	127
94.34190476190476	94.50444444444445	55	127
94.50444444444445	94.67859410430839	50	127
94.67859410430839	94.8759410430839	56	127
94.8759410430839	95.02689342403629	55	127
95.02689342403629	95.21265306122449	53	127
95.21265306122449	95.3984126984127	55	127
95.3984126984127	95.56095238095239	56	127
95.56095238095239	95.73510204081633	58	127
95.73510204081633	95.85120181405895	55	127
95.85120181405895	96.17628117913833	51	127
96.17628117913833	96.3736507936508	50	127
96.3736507936508	96.52458049886621	48	127
96.52458049886621	96.71034013605443	47	127
96.71034013605443	96.89609977324263	48	127
96.89609977324263	97.08185941043084	50	127
97.08185941043084	97.25600907029478	51	127
97.25600907029478	97.61591836734694	53	127
97.61591836734694	97.95260770975057	56	127
97.95260770975057	98.12675736961451	62	127
98.12675736961451	98.2892970521542	60	127
98.2892970521542	98.42861678004535	59	127
98.42861678004535	98.6027664399093	57	127
98.6027664399093	98.93945578231292	55	127
98.93945578231292	99.24131519274377	53	127
99.24131519274377	99.45029478458049	48	127
99.45029478458049	99.61283446712018	50	127
99.61283446712018	99.81020408163265	51	127
99.81020408163265	99.96113378684807	53	127
99.96113378684807	100.12367346938775	55	127
100.12367346938775	100.27460317460317	59	127
100.27460317460317	100.44875283446711	60	127
100.44875283446711	100.59968253968253	62	127
