# onset,offset,note,velocity
2.25156462585034	2.4024943310657596	51	127
2.4024943310657596	2.553424036281179	51	127
2.553424036281179	2.7043537414965986	50	127
2.7043537414965986	2.855283446712018	51	127
2.855283446712018	3.0062131519274375	46	127
3.0062131519274375	3.157142857142857	48	127
3.157142857142857	3.2964625850340137	50	127
3.2964625850340137	3.447392290249433	51	127
3.447392290249433	3.6215419501133788	50	127
3.6215419501133788	3.749251700680272	51	127
3.749251700680272	3.9117913832199545	55	127
3.9117913832199545	4.0859410430839	53	127
4.0859410430839	4.225260770975057	55	127
4.225260770975057	4.376190476190477	51	127
4.376190476190477	4.50390022675737	50	127
4.50390022675737	4.654829931972789	51	127
4.654829931972789	4.794149659863946	46	127
4.794149659863946	4.910249433106576	48	127
4.910249433106576	5.084399092970521	50	127
5.084399092970521	5.873877551020408	39	127
5.873877551020408	6.013197278911565	55	127
6.013197278911565	6.175736961451247	53	127
6.175736961451247	6.326666666666667	51	127
6.326666666666667	6.500816326530612	53	127
6.500816326530612	6.6401360544217685	58	127
6.6401360544217685	6.767845804988662	55	127
6.767845804988662	6.918775510204082	56	127
6.918775510204082	7.081315192743764	55	127
7.081315192743764	7.232244897959184	53	127
7.232244897959184	7.383174603174603	55	127
7.383174603174603	7.487664399092971	51	127
7.487664399092971	7.63859410430839	53	127
7.63859410430839	7.7779138321995465	55	127
7.7779138321995465	7.940453514739229	53	127
7.940453514739229	8.079773242630386	51	127
8.079773242630386	8.219092970521542	53	127
8.219092970521542	8.381632653061224	58	127
8.381632653061224	8.52092970521542	55	127
8.52092970521542	8.648639455782313	56	127
8.648639455782313	8.764761904761905	55	127
8.764761904761905	8.904081632653062	53	127
8.904081632653062	9.031791383219955	55	127
9.031791383219955	9.159501133786849	51	127
9.159501133786849	9.333650793650794	55	127
9.333650793650794	9.472947845804988	53	127
9.472947845804988	9.612290249433107	51	127
9.612290249433107	9.751609977324263	50	127
9.751609977324263	9.856099773242631	51	127
9.856099773242631	9.995419501133787	60	127
9.995419501133787	10.146349206349207	57	127
10.146349206349207	10.297256235827664	58	127
10.297256235827664	10.45981859410431	57	127
10.45981859410431	10.587528344671203	55	127
10.587528344671203	10.73845804988662	57	127
10.73845804988662	10.88938775510204	53	127
10.88938775510204	11.04031746031746	57	127
11.04031746031746	11.19124716553288	53	127
11.19124716553288	11.330566893424036	51	127
11.330566893424036	11.469863945578231	50	127
11.469863945578231	11.620816326530612	51	127
11.620816326530612	11.76013605442177	60	127
11.76013605442177	11.911065759637188	57	127
11.911065759637188	12.038775510204081	58	127
12.038775510204081	12.189705215419501	57	127
12.189705215419501	12.317414965986394	55	127
12.317414965986394	12.468344671201814	57	127
12.468344671201814	12.642494331065759	53	127
12.642494331065759	12.746984126984128	57	127
12.746984126984128	12.874693877551021	51	127
12.874693877551021	13.048843537414966	50	127
13.048843537414966	13.164943310657597	48	127
13.164943310657597	13.327482993197279	50	127
13.327482993197279	13.466802721088435	62	127
13.466802721088435	13.640952380952381	57	127
13.640952380952381	13.791882086167801	58	127
13.791882086167801	13.931201814058957	51	127
13.931201814058957	14.05891156462585	50	127
14.05891156462585	14.20984126984127	51	127
14.20984126984127	14.349160997732426	62	127
14.349160997732426	14.511700680272108	57	127
14.511700680272108	14.639410430839002	58	127
14.639410430839002	14.77873015873016	53	127
14.77873015873016	14.906439909297053	51	127
14.906439909297053	15.068979591836735	53	127
15.068979591836735	15.277959183673469	62	127
15.277959183673469	15.440498866213153	57	127
15.440498866213153	15.603038548752835	58	127
15.603038548752835	15.753968253968255	55	127
15.753968253968255	15.904897959183673	53	127
15.904897959183673	16.032607709750568	55	127
16.032607709750568	16.171927437641724	62	127
16.171927437641724	16.31124716553288	57	127
16.31124716553288	16.438956916099773	58	127
16.438956916099773	16.601496598639457	51	127
16.601496598639457	16.752426303854875	50	127
16.752426303854875	16.89174603174603	51	127
16.89174603174603	17.031043083900226	48	127
17.031043083900226	17.15875283446712	51	127
17.15875283446712	17.309705215419502	46	127
17.309705215419502	17.46063492063492	45	127
17.46063492063492	17.588344671201813	51	127
17.588344671201813	17.716054421768707	43	127
17.716054421768707	17.86698412698413	45	127
17.86698412698413	17.983061224489795	51	127
17.983061224489795	18.134013605442178	41	127
18.134013605442178	18.284943310657596	46	127
18.284943310657596	18.42426303854875	50	127
18.42426303854875	18.586802721088436	53	127
18.586802721088436	18.749319727891155	58	127
18.749319727891155	18.87702947845805	50	127
18.87702947845805	19.039591836734694	53	127
19.039591836734694	19.933560090702947	46	127
19.933560090702947	20.09609977324263	51	127
20.09609977324263	20.212199546485262	51	127
20.212199546485262	20.374739229024943	50	127
20.374739229024943	20.560498866213152	51	127
20.560498866213152	20.699818594104308	46	127
20.699818594104308	20.86235827664399	48	127
20.86235827664399	21.071337868480725	50	127
21.071337868480725	21.23387755102041	51	127
21.23387755102041	21.349954648526076	50	127
21.349954648526076	21.466077097505668	51	127
21.466077097505668	21.628616780045352	55	127
21.628616780045352	21.77954648526077	53	127
21.77954648526077	21.8956462585034	55	127
21.8956462585034	22.104603174603174	51	127
22.104603174603174	22.27877551020408	50	127
22.27877551020408	22.406485260770975	51	127
22.406485260770975	22.522585034013606	46	127
22.522585034013606	22.673514739229024	48	127
22.673514739229024	22.812834467120183	50	127
22.812834467120183	23.590702947845806	39	127
23.590702947845806	23.764852607709752	55	127
23.764852607709752	23.950612244897957	53	127
23.950612244897957	24.10154195011338	51	127
24.10154195011338	24.240861678004535	53	127
24.240861678004535	24.391791383219953	58	127
24.391791383219953	24.507891156462584	55	127
24.507891156462584	24.64721088435374	56	127
24.64721088435374	24.79814058956916	55	127
24.79814058956916	24.960680272108842	53	127
24.960680272108842	25.111609977324264	55	127
25.111609977324264	25.262539682539682	51	127
25.262539682539682	25.401859410430838	53	127
25.401859410430838	25.541179138321997	55	127
25.541179138321997	25.680498866213153	53	127
25.680498866213153	25.83142857142857	51	127
25.83142857142857	25.970748299319727	53	127
25.970748299319727	26.13328798185941	58	127
26.13328798185941	26.28421768707483	55	127
26.28421768707483	26.43514739229025	56	127
26.43514739229025	26.58607709750567	55	127
26.58607709750567	26.7021768707483	53	127
26.7021768707483	26.86471655328798	55	127
26.86471655328798	27.027256235827664	51	127
27.027256235827664	27.20140589569161	55	127
27.20140589569161	27.329115646258504	53	127
27.329115646258504	27.480045351473922	51	127
27.480045351473922	27.61936507936508	50	127
27.61936507936508	27.73546485260771	51	127
27.73546485260771	27.88639455782313	60	127
27.88639455782313	28.04893424036281	57	127
28.04893424036281	28.176643990929705	58	127
28.176643990929705	28.31596371882086	57	127
28.31596371882086	28.443673469387754	55	127
28.443673469387754	28.582993197278913	57	127
28.582993197278913	28.73392290249433	53	127
28.73392290249433	28.88485260770975	57	127
28.88485260770975	29.024172335600905	53	127
29.024172335600905	29.163492063492065	51	127
29.163492063492065	29.314421768707483	50	127
29.314421768707483	29.4653514739229	51	127
29.4653514739229	29.616281179138323	60	127
29.616281179138323	29.778820861678003	57	127
29.778820861678003	29.87170068027211	58	127
29.87170068027211	30.011020408163265	57	127
30.011020408163265	30.15034013605442	55	127
30.15034013605442	30.301269841269843	57	127
30.301269841269843	30.440589569161	53	127
30.440589569161	30.579909297052154	57	127
30.579909297052154	30.707619047619048	51	127
30.707619047619048	30.858548752834466	50	127
30.858548752834466	31.02108843537415	48	127
31.02108843537415	31.183628117913834	50	127
31.183628117913834	31.311337868480727	62	127
31.311337868480727	31.473877551020408	57	127
31.473877551020408	31.648027210884354	58	127
31.648027210884354	31.810566893424035	51	127
31.810566893424035	31.949886621315194	50	127
31.949886621315194	32.05437641723356	51	127
32.05437641723356	32.20530612244898	62	127
32.20530612244898	32.36784580498866	57	127
32.36784580498866	32.48394557823129	58	127
32.48394557823129	32.65807256235828	53	127
32.65807256235828	32.762585034013604	51	127
32.762585034013604	32.913492063492065	53	127
32.913492063492065	33.08766439909297	62	127
33.08766439909297	33.22698412698413	57	127
33.22698412698413	33.377913832199546	58	127
33.377913832199546	33.5172335600907	55	127
33.5172335600907	33.69138321995465	53	127
33.69138321995465	33.84231292517007	55	127
33.84231292517007	33.99324263038549	62	127
33.99324263038549	34.132562358276644	57	127
34.132562358276644	34.2718820861678	58	127
34.2718820861678	34.411201814058956	51	127
34.411201814058956	34.585351473922906	50	127
34.585351473922906	34.747891156462586	51	127
34.747891156462586	34.898820861678004	48	127
34.898820861678004	35.03814058956916	51	127
35.03814058956916	35.16585034013605	46	127
35.16585034013605	35.32836734693878	45	127
35.32836734693878	35.45607709750567	51	127
35.45607709750567	35.618639455782315	43	127
35.618639455782315	35.781179138321995	45	127
35.781179138321995	35.90888888888889	51	127
35.90888888888889	36.07142857142857	41	127
36.07142857142857	36.164308390022676	46	127
36.164308390022676	36.268798185941044	50	127
36.268798185941044	36.39650793650794	53	127
36.39650793650794	36.57065759637188	58	127
36.57065759637188	36.72156462585034	50	127
36.72156462585034	36.872517006802724	53	127
36.872517006802724	37.754875283446715	46	127
37.754875283446715	37.92902494331066	58	127
37.92902494331066	38.068344671201814	58	127
38.068344671201814	38.21927437641723	57	127
38.21927437641723	38.35859410430839	58	127
38.35859410430839	38.47469387755102	53	127
38.47469387755102	38.614013605442175	55	127
38.614013605442175	38.75331065759637	57	127
38.75331065759637	38.91587301587302	58	127
38.91587301587302	39.09002267573696	57	127
39.09002267573696	39.19451247165533	58	127
39.19451247165533	39.34544217687075	62	127
39.34544217687075	39.496371882086166	60	127
39.496371882086166	39.65891156462585	62	127
39.65891156462585	39.821451247165534	58	127
39.821451247165534	39.96077097505669	57	127
39.96077097505669	40.07687074829932	58	127
40.07687074829932	40.204580498866214	53	127
40.204580498866214	40.39034013605442	55	127
40.39034013605442	40.541269841269845	57	127
40.541269841269845	41.31913832199547	46	127
41.31913832199547	41.49328798185941	62	127
41.49328798185941	41.76031746031746	62	127
41.76031746031746	41.899637188208615	60	127
41.899637188208615	42.050544217687076	62	127
42.050544217687076	42.189886621315196	56	127
42.189886621315196	42.35242630385488	55	127
42.35242630385488	42.503356009070295	56	127
42.503356009070295	42.64267573696145	53	127
42.64267573696145	42.80521541950113	51	127
42.80521541950113	42.92131519274376	53	127
42.92131519274376	43.049024943310656	47	127
43.049024943310656	43.21156462585034	53	127
43.21156462585034	43.36249433106576	62	127
43.36249433106576	43.52503401360544	62	127
43.52503401360544	43.68757369614512	60	127
43.68757369614512	43.83850340136055	62	127
43.83850340136055	43.96621315192744	56	127
43.96621315192744	44.11714285714286	55	127
44.11714285714286	44.2912925170068	56	127
44.2912925170068	44.45383219954648	53	127
44.45383219954648	44.60476190476191	51	127
44.60476190476191	44.76730158730159	53	127
44.76730158730159	44.906621315192744	47	127
44.906621315192744	45.03433106575964	50	127
45.03433106575964	45.185260770975056	53	127
45.185260770975056	45.32458049886621	51	127
45.32458049886621	45.49873015873016	50	127
45.49873015873016	45.61482993197279	51	127
45.61482993197279	45.76575963718821	48	127
45.76575963718821	45.92829931972789	51	127
45.92829931972789	46.056009070294785	46	127
46.056009070294785	46.23015873015873	44	127
46.23015873015873	46.38108843537415	48	127
46.38108843537415	46.508798185941046	53	127
46.508798185941046	46.6481179138322	56	127
46.6481179138322	46.79904761904762	60	127
46.79904761904762	46.9615873015873	51	127
46.9615873015873	47.100907029478456	50	127
47.100907029478456	47.263446712018144	48	127
47.263446712018144	47.39115646258504	50	127
47.39115646258504	47.51886621315193	46	127
47.51886621315193	47.68140589569161	50	127
47.68140589569161	47.82072562358277	44	127
47.82072562358277	47.925215419501136	43	127
47.925215419501136	48.06453514739229	46	127
48.06453514739229	48.20385487528345	51	127
48.20385487528345	48.354784580498865	55	127
48.354784580498865	48.505714285714284	58	127
48.505714285714284	48.6566439909297	50	127
48.6566439909297	48.795963718820865	48	127
48.795963718820865	48.92367346938776	46	127
48.92367346938776	49.08621315192744	48	127
49.08621315192744	49.23714285714286	44	127
49.23714285714286	49.4112925170068	48	127
49.4112925170068	49.562222222222225	43	127
49.562222222222225	49.678321995464856	41	127
49.678321995464856	49.81764172335601	44	127
49.81764172335601	49.95696145124717	50	127
49.95696145124717	50.11950113378685	53	127
50.11950113378685	50.270430839002266	56	127
50.270430839002266	50.374920634920635	48	127
50.374920634920635	50.51424036281179	47	127
50.51424036281179	50.67678004535147	50	127
50.67678004535147	50.83931972789116	55	127
50.83931972789116	50.95541950113379	59	127
50.95541950113379	51.094739229024945	62	127
51.094739229024945	51.2340589569161	53	127
51.2340589569161	51.361768707482995	51	127
51.361768707482995	51.524308390022675	55	127
51.524308390022675	51.66362811791383	60	127
51.66362811791383	51.791337868480724	55	127
51.791337868480724	51.953877551020405	60	127
51.953877551020405	52.10480725623583	59	127
52.10480725623583	52.26734693877551	60	127
52.26734693877551	52.406666666666666	59	127
52.406666666666666	52.56920634920635	60	127
52.56920634920635	52.7433560090703	55	127
52.7433560090703	52.847845804988665	57	127
52.847845804988665	53.010385487528346	59	127
53.010385487528346	53.1497052154195	60	127
53.1497052154195	53.277414965986395	59	127
53.277414965986395	53.439954648526076	60	127
53.439954648526076	53.590884353741494	63	127
53.590884353741494	53.74181405895692	62	127
53.74181405895692	53.89274376417234	63	127
53.89274376417234	54.03206349206349	60	127
54.03206349206349	54.17138321995465	59	127
54.17138321995465	54.33392290249433	60	127
54.33392290249433	54.48485260770975	51	127
54.48485260770975	54.647392290249435	53	127
54.647392290249435	54.78671201814059	55	127
54.78671201814059	54.93764172335601	48	127
54.93764172335601	55.05374149659864	51	127
55.05374149659864	55.18145124716553	54	127
55.18145124716553	55.2859410430839	57	127
55.2859410430839	55.42526077097506	60	127
55.42526077097506	55.58780045351474	57	127
55.58780045351474	55.70390022675737	54	127
55.70390022675737	55.843219954648525	57	127
55.843219954648525	56.017369614512475	60	127
56.017369614512475	56.1334693877551	63	127
56.1334693877551	56.26117913832199	62	127
56.26117913832199	56.388888888888886	60	127
56.388888888888886	56.52820861678005	58	127
56.52820861678005	56.713968253968254	57	127
56.713968253968254	56.86489795918367	55	127
56.86489795918367	57.03904761904762	50	127
57.03904761904762	57.17836734693878	55	127
57.17836734693878	57.329297052154196	54	127
57.329297052154196	57.49183673469388	55	127
57.49183673469388	57.61954648526077	54	127
57.61954648526077	57.758866213151926	55	127
57.758866213151926	57.909795918367344	58	127
57.909795918367344	58.04911564625851	54	127
58.04911564625851	58.1768253968254	55	127
58.1768253968254	58.30453514739229	48	127
58.30453514739229	58.44385487528345	46	127
58.44385487528345	58.54834467120181	48	127
58.54834467120181	58.7108843537415	58	127
58.7108843537415	58.87342403628118	54	127
58.87342403628118	59.0243537414966	55	127
59.0243537414966	59.21011337868481	50	127
59.21011337868481	59.349433106575965	48	127
59.349433106575965	59.52358276643991	50	127
59.52358276643991	59.68612244897959	58	127
59.68612244897959	59.82544217687075	54	127
59.82544217687075	59.97637188208617	55	127
59.97637188208617	60.12730158730159	51	127
60.12730158730159	60.28984126984127	50	127
60.28984126984127	60.4059410430839	51	127
60.4059410430839	60.56848072562358	58	127
60.56848072562358	60.73102040816327	54	127
60.73102040816327	60.881950113378686	55	127
60.881950113378686	61.032879818594104	57	127
61.032879818594104	61.20702947845805	60	127
61.20702947845805	61.35795918367347	55	127
61.35795918367347	61.485668934240366	54	127
61.485668934240366	61.62498866213152	60	127
61.62498866213152	61.76430839002268	52	127
61.76430839002268	61.92684807256236	50	127
61.92684807256236	62.077777777777776	60	127
62.077777777777776	62.24031746031746	52	127
62.24031746031746	62.36802721088436	54	127
62.36802721088436	62.49573696145125	60	127
62.49573696145125	62.65827664399093	55	127
62.65827664399093	62.785986394557824	57	127
62.785986394557824	62.97174603174603	60	127
62.97174603174603	63.111065759637185	55	127
63.111065759637185	63.27360544217687	54	127
63.27360544217687	63.41292517006803	60	127
63.41292517006803	63.552244897959184	52	127
63.552244897959184	63.668344671201815	50	127
63.668344671201815	63.80766439909297	60	127
63.80766439909297	63.94698412698413	52	127
63.94698412698413	64.10952380952381	54	127
64.10952380952381	64.2372335600907	60	127
64.2372335600907	64.3649433106576	50	127
64.3649433106576	64.51587301587301	58	127
64.51587301587301	64.69	57	127
64.69	64.84095238095239	55	127
64.84095238095239	64.9918820861678	50	127
64.9918820861678	65.14281179138322	55	127
65.14281179138322	65.28213151927437	54	127
65.28213151927437	65.44467120181406	55	127
65.44467120181406	65.59560090702948	50	127
65.59560090702948	65.7465306122449	46	127
65.7465306122449	66.03678004535148	43	127
66.03678004535148	66.1992970521542	51	127
66.1992970521542	66.31541950113379	51	127
66.31541950113379	66.46634920634921	50	127
66.46634920634921	66.6869387755102	51	127
66.6869387755102	66.87269841269841	46	127
66.87269841269841	67.02362811791383	48	127
67.02362811791383	67.162947845805	50	127
67.162947845805	67.33709750566894	51	127
67.33709750566894	67.52285714285715	50	127
67.52285714285715	67.67378684807257	51	127
67.67378684807257	67.82471655328798	55	127
67.82471655328798	67.9756462585034	53	127
67.9756462585034	68.1149433106576	55	127
68.1149433106576	68.24265306122449	51	127
68.24265306122449	68.40521541950113	50	127
68.40521541950113	68.53292517006803	51	127
68.53292517006803	68.67224489795919	46	127
68.67224489795919	68.8231746031746	48	127
68.8231746031746	68.98571428571428	50	127
68.98571428571428	69.7984126984127	39	127
69.7984126984127	69.96095238095238	55	127
69.96095238095238	70.12349206349207	53	127
70.12349206349207	70.26278911564626	51	127
70.26278911564626	70.41371882086167	53	127
70.41371882086167	70.56467120181406	58	127
70.56467120181406	70.69238095238096	55	127
70.69238095238096	70.85492063492063	56	127
70.85492063492063	70.98263038548752	55	127
70.98263038548752	71.11034013605442	53	127
71.11034013605442	71.2728798185941	55	127
71.2728798185941	71.38897959183673	51	127
71.38897959183673	71.53988662131519	53	127
71.53988662131519	71.7140589569161	55	127
71.7140589569161	71.86498866213152	53	127
71.86498866213152	71.99269841269842	51	127
71.99269841269842	72.14362811791383	53	127
72.14362811791383	72.30614512471655	58	127
72.30614512471655	72.45709750566894	55	127
72.45709750566894	72.56156462585034	56	127
72.56156462585034	72.72412698412698	55	127
72.72412698412698	72.8750566893424	53	127
72.8750566893424	73.02598639455782	55	127
73.02598639455782	73.14208616780046	51	127
73.14208616780046	73.30460317460317	55	127
73.30460317460317	73.46716553287982	56	127
73.46716553287982	73.6297052154195	58	127
73.6297052154195	73.79224489795918	56	127
73.79224489795918	73.88512471655329	58	127
