# onset,offset,note,velocity
0.034058956916099774	0.3126984126984127	51	127
0.3126984126984127	0.47523809523809524	55	127
0.47523809523809524	0.6145578231292517	51	127
0.6145578231292517	0.7306575963718821	55	127
0.7422675736961452	0.8583673469387755	63	127
0.8583673469387755	0.9512471655328798	55	127
0.9512471655328798	1.0673469387755101	51	127
1.0673469387755101	1.1834467120181407	55	127
1.1950566893424037	1.322766439909297	51	127
1.322766439909297	1.4388662131519274	55	127
1.4388662131519274	1.5665759637188208	63	127
1.5665759637188208	1.6942857142857144	55	127
1.7058956916099772	1.8219954648526078	51	127
1.8219954648526078	1.938095238095238	55	127
1.938095238095238	2.0541950113378684	51	127
2.0541950113378684	2.147074829931973	55	127
2.1586848072562357	2.2747845804988662	63	127
2.2747845804988662	2.3676643990929707	55	127
2.3676643990929707	2.472154195011338	51	127
2.472154195011338	2.5882539682539685	55	127
2.5998639455782313	2.7043537414965986	51	127
2.7043537414965986	2.820453514739229	55	127
2.820453514739229	2.9365306122448978	63	127
2.9365306122448978	3.0526530612244898	55	127
3.064263038548753	3.1687528344671203	51	127
3.1687528344671203	3.2848526077097504	55	127
3.2848526077097504	3.412562358276644	51	127
3.412562358276644	3.5286621315192743	55	127
3.5402721088435376	3.644761904761905	63	127
3.644761904761905	3.760861678004535	55	127
3.760861678004535	3.8537414965986394	51	127
3.8537414965986394	3.96984126984127	55	127
3.981451247165533	4.0859410430839	51	127
4.0859410430839	4.202040816326531	55	127
4.202040816326531	4.260090702947846	63	127
4.260090702947846	4.318140589569161	55	127
4.318140589569161	4.434240362811791	51	127
4.434240362811791	4.55031746031746	55	127
4.55031746031746	4.666439909297052	51	127
4.666439909297052	4.782539682539682	55	127
4.782539682539682	4.8986167800453515	63	127
4.8986167800453515	4.991519274376417	55	127
4.991519274376417	5.084399092970521	51	127
5.084399092970521	5.212108843537415	55	127
5.212108843537415	5.3165986394557825	51	127
5.3165986394557825	5.421065759637188	55	127
5.421065759637188	5.53718820861678	63	127
5.53718820861678	5.664897959183674	55	127
5.664897959183674	5.780997732426304	51	127
5.780997732426304	5.897074829931973	55	127
5.897074829931973	6.013197278911565	51	127
6.024807256235827	6.140907029478458	55	127
6.140907029478458	6.257006802721088	63	127
6.257006802721088	6.361496598639456	55	127
6.361496598639456	6.4543764172335605	51	127
6.465986394557823	6.570476190476191	55	127
6.570476190476191	6.651746031746032	51	127
6.651746031746032	6.733015873015873	55	127
6.733015873015873	6.837505668934241	63	127
6.849115646258503	6.953605442176871	55	127
6.953605442176871	7.058095238095238	51	127
7.058095238095238	7.1741950113378685	72	127
7.058095238095238	7.1741950113378685	55	127
7.1741950113378685	7.278684807256236	70	127
7.1741950113378685	7.278684807256236	51	127
7.290294784580499	7.37156462585034	68	127
7.290294784580499	7.37156462585034	55	127
7.37156462585034	7.429614512471655	67	127
7.37156462585034	7.429614512471655	63	127
7.429614512471655	7.545714285714285	55	127
7.429614512471655	7.661814058956916	65	127
7.545714285714285	7.661814058956916	51	127
7.673424036281179	7.78952380952381	62	127
7.673424036281179	7.78952380952381	55	127
7.78952380952381	7.90562358276644	63	127
7.78952380952381	7.90562358276644	51	127
7.90562358276644	8.02172335600907	65	127
7.90562358276644	8.02172335600907	55	127
8.02172335600907	8.1378231292517	67	127
8.02172335600907	8.1378231292517	63	127
8.149433106575964	8.277142857142858	55	127
8.149433106575964	8.381632653061224	68	127
8.277142857142858	8.381632653061224	51	127
8.381632653061224	8.486122448979591	70	127
8.381632653061224	8.486122448979591	55	127
8.486122448979591	8.602222222222222	72	127
8.486122448979591	8.602222222222222	51	127
8.613832199546485	8.648639455782313	74	127
8.613832199546485	8.648639455782313	55	127
8.648639455782313	8.718321995464853	75	127
8.648639455782313	8.718321995464853	63	127
8.718321995464853	8.82281179138322	77	127
8.718321995464853	8.82281179138322	55	127
8.82281179138322	8.927301587301587	67	127
8.82281179138322	8.927301587301587	79	127
8.82281179138322	8.927301587301587	51	127
8.927301587301587	8.962131519274376	68	127
8.927301587301587	8.962131519274376	80	127
8.927301587301587	8.962131519274376	55	127
8.962131519274376	9.066621315192744	51	127
8.962131519274376	9.322040816326531	67	127
8.962131519274376	9.322040816326531	79	127
9.066621315192744	9.136281179138322	55	127
9.136281179138322	9.240770975056689	63	127
9.252380952380953	9.368480725623582	55	127
9.368480725623582	9.484580498866213	51	127
9.484580498866213	9.600657596371882	72	127
9.484580498866213	9.600657596371882	55	127
9.600657596371882	9.716780045351474	70	127
9.600657596371882	9.716780045351474	51	127
9.728390022675738	9.844489795918367	68	127
9.728390022675738	9.844489795918367	55	127
9.844489795918367	9.960589569160998	63	127
9.844489795918367	9.960589569160998	67	127
9.960589569160998	10.076666666666666	55	127
9.960589569160998	10.192789115646258	65	127
10.076666666666666	10.192789115646258	51	127
10.204399092970522	10.320498866213152	62	127
10.204399092970522	10.320498866213152	55	127
10.320498866213152	10.413378684807256	63	127
10.320498866213152	10.413378684807256	51	127
10.413378684807256	10.483038548752834	65	127
10.413378684807256	10.483038548752834	55	127
10.483038548752834	10.587528344671203	67	127
10.483038548752834	10.587528344671203	63	127
10.599138321995465	10.8081179138322	68	127
10.599138321995465	10.69201814058957	55	127
10.69201814058957	10.8081179138322	51	127
10.8081179138322	10.935827664399094	70	127
10.8081179138322	10.935827664399094	55	127
10.935827664399094	11.051927437641723	72	127
10.935827664399094	11.051927437641723	51	127
11.063537414965987	11.156417233560092	74	127
11.063537414965987	11.156417233560092	55	127
11.156417233560092	11.260907029478458	75	127
11.156417233560092	11.260907029478458	63	127
11.260907029478458	11.330566893424036	77	127
11.260907029478458	11.330566893424036	55	127
11.330566893424036	11.42344671201814	67	127
11.330566893424036	11.42344671201814	79	127
11.330566893424036	11.42344671201814	51	127
11.42344671201814	11.539546485260772	80	127
11.42344671201814	11.539546485260772	55	127
11.42344671201814	11.539546485260772	68	127
11.539546485260772	11.911065759637188	67	127
11.539546485260772	11.632426303854876	51	127
11.539546485260772	11.911065759637188	79	127
11.632426303854876	11.748526077097505	55	127
11.748526077097505	11.853015873015874	63	127
11.853015873015874	11.911065759637188	55	127
11.911065759637188	12.015555555555556	70	127
11.911065759637188	12.015555555555556	82	127
11.911065759637188	12.015555555555556	51	127
12.015555555555556	12.131655328798185	68	127
12.015555555555556	12.131655328798185	80	127
12.015555555555556	12.131655328798185	55	127
12.131655328798185	12.259365079365079	51	127
12.131655328798185	12.34063492063492	67	127
12.131655328798185	12.34063492063492	79	127
12.259365079365079	12.387074829931972	56	127
12.387074829931972	12.503174603174603	51	127
12.387074829931972	12.596054421768708	65	127
12.387074829931972	12.596054421768708	77	127
12.503174603174603	12.619274376417234	57	127
12.630884353741497	12.746984126984128	67	127
12.630884353741497	12.746984126984128	79	127
12.630884353741497	12.746984126984128	51	127
12.746984126984128	12.851473922902494	80	127
12.746984126984128	12.851473922902494	55	127
12.746984126984128	12.851473922902494	68	127
12.851473922902494	13.257823129251701	67	127
12.851473922902494	12.955963718820861	51	127
12.851473922902494	13.257823129251701	79	127
12.955963718820861	13.072063492063492	55	127
13.083673469387755	13.199773242630386	63	127
13.199773242630386	13.257823129251701	55	127
13.257823129251701	13.37392290249433	70	127
13.257823129251701	13.37392290249433	82	127
13.257823129251701	13.37392290249433	51	127
13.37392290249433	13.490022675736961	68	127
13.37392290249433	13.490022675736961	80	127
13.37392290249433	13.490022675736961	55	127
13.501632653061224	13.606122448979592	51	127
13.501632653061224	13.687392290249432	67	127
13.501632653061224	13.687392290249432	79	127
13.606122448979592	13.722222222222221	56	127
13.722222222222221	13.82671201814059	51	127
13.722222222222221	13.884761904761906	65	127
13.722222222222221	13.884761904761906	77	127
13.82671201814059	13.90798185941043	57	127
13.919591836734694	14.012471655328799	67	127
13.919591836734694	14.012471655328799	79	127
13.919591836734694	14.012471655328799	51	127
14.012471655328799	14.105351473922903	68	127
14.012471655328799	14.105351473922903	80	127
14.012471655328799	14.105351473922903	55	127
14.116961451247166	14.221451247165533	51	127
14.116961451247166	14.546530612244897	67	127
14.116961451247166	14.546530612244897	79	127
14.221451247165533	14.337551020408164	55	127
14.349160997732426	14.465260770975057	63	127
14.47687074829932	14.59297052154195	55	127
14.59297052154195	14.662630385487528	70	127
14.59297052154195	14.662630385487528	82	127
14.59297052154195	14.662630385487528	52	127
14.662630385487528	14.77873015873016	72	127
14.662630385487528	14.77873015873016	84	127
14.662630385487528	14.77873015873016	55	127
14.790340136054422	15.219909297052155	82	127
14.790340136054422	14.906439909297053	52	127
14.790340136054422	15.219909297052155	70	127
14.906439909297053	15.022539682539682	55	127
15.022539682539682	15.138639455782313	64	127
15.138639455782313	15.254739229024944	55	127
15.266349206349206	15.382448979591837	53	127
15.382448979591837	15.463718820861677	58	127
15.463718820861677	15.62625850340136	77	127
15.463718820861677	15.54498866213152	53	127
15.463718820861677	15.62625850340136	89	127
15.54498866213152	15.66108843537415	58	127
15.672698412698413	15.788798185941044	65	127
15.672698412698413	15.870068027210884	70	127
15.672698412698413	15.870068027210884	82	127
15.788798185941044	15.904897959183673	58	127
15.904897959183673	15.986167800453515	54	127
15.904897959183673	17.390975056689342	70	127
15.904897959183673	17.390975056689342	82	127
15.986167800453515	16.102267573696146	58	127
16.102267573696146	16.19514739229025	54	127
16.19514739229025	16.31124716553288	58	127
16.31124716553288	16.42734693877551	66	127
16.42734693877551	16.53183673469388	58	127
16.53183673469388	16.647936507936507	54	127
16.647936507936507	16.740816326530613	58	127
16.740816326530613	16.845283446712017	54	127
16.856916099773244	16.96140589569161	58	127
16.96140589569161	17.07750566893424	66	127
17.07750566893424	17.19360544217687	58	127
17.19360544217687	17.309705215419502	54	127
17.321315192743764	17.437414965986395	58	127
17.437414965986395	17.507074829931973	54	127
17.437414965986395	17.623174603174604	70	127
17.437414965986395	17.623174603174604	82	127
17.507074829931973	17.623174603174604	58	127
17.623174603174604	17.704444444444444	66	127
17.623174603174604	17.832154195011338	82	127
17.623174603174604	17.832154195011338	70	127
17.716054421768707	17.832154195011338	58	127
17.832154195011338	17.94825396825397	54	127
17.832154195011338	18.075963718820862	70	127
17.832154195011338	18.075963718820862	82	127
17.94825396825397	18.075963718820862	58	127
18.075963718820862	18.215283446712018	54	127
18.075963718820862	18.319773242630387	70	127
18.075963718820862	18.319773242630387	82	127
18.22689342403628	18.319773242630387	58	127
18.319773242630387	18.41265306122449	66	127
18.319773242630387	18.517142857142858	70	127
18.319773242630387	18.517142857142858	82	127
18.41265306122449	18.517142857142858	58	127
18.517142857142858	18.621609977324262	43	127
18.517142857142858	18.621609977324262	67	127
18.63324263038549	18.737732426303854	70	127
18.63324263038549	18.737732426303854	46	127
18.737732426303854	18.842222222222222	67	127
18.737732426303854	18.842222222222222	43	127
18.842222222222222	18.958321995464853	70	127
18.842222222222222	18.958321995464853	46	127
18.958321995464853	19.02798185941043	79	127
18.958321995464853	19.02798185941043	55	127
19.02798185941043	19.1324716553288	70	127
19.02798185941043	19.1324716553288	46	127
19.1324716553288	19.248571428571427	43	127
19.1324716553288	19.248571428571427	67	127
19.248571428571427	19.36467120181406	70	127
19.248571428571427	19.36467120181406	46	127
19.36467120181406	19.434331065759636	67	127
19.36467120181406	19.434331065759636	43	127
19.445918367346938	19.550430839002267	70	127
19.445918367346938	19.550430839002267	46	127
19.550430839002267	19.654920634920636	79	127
19.550430839002267	19.654920634920636	55	127
19.654920634920636	19.771020408163267	70	127
19.654920634920636	19.771020408163267	46	127
19.771020408163267	19.887097505668933	67	127
19.771020408163267	19.887097505668933	43	127
19.89873015873016	20.003219954648525	71	127
19.89873015873016	20.003219954648525	47	127
20.003219954648525	20.08448979591837	43	127
20.003219954648525	20.08448979591837	67	127
20.08448979591837	20.17736961451247	47	127
20.08448979591837	20.17736961451247	71	127
20.17736961451247	20.270226757369613	55	127
20.17736961451247	20.270226757369613	79	127
20.28185941043084	20.397936507936507	71	127
20.28185941043084	20.397936507936507	47	127
20.397936507936507	20.502448979591836	67	127
20.397936507936507	20.502448979591836	43	127
20.502448979591836	20.618548752834467	71	127
20.502448979591836	20.618548752834467	47	127
20.618548752834467	20.723038548752836	67	127
20.618548752834467	20.723038548752836	43	127
20.723038548752836	20.8275283446712	71	127
20.723038548752836	20.8275283446712	47	127
20.8275283446712	20.93201814058957	79	127
20.8275283446712	20.93201814058957	55	127
20.93201814058957	21.059727891156463	71	127
20.93201814058957	21.059727891156463	47	127
21.059727891156463	21.21065759637188	51	127
21.21065759637188	21.326757369614512	72	127
21.21065759637188	21.326757369614512	55	127
21.326757369614512	21.43124716553288	70	127
21.326757369614512	21.43124716553288	51	127
21.43124716553288	21.54734693877551	68	127
21.43124716553288	21.54734693877551	55	127
21.54734693877551	21.663424036281178	67	127
21.54734693877551	21.663424036281178	63	127
21.663424036281178	21.767936507936508	55	127
21.663424036281178	21.860816326530614	65	127
21.767936507936508	21.860816326530614	51	127
21.860816326530614	21.96530612244898	62	127
21.860816326530614	21.96530612244898	55	127
21.97691609977324	22.08140589569161	63	127
21.97691609977324	22.08140589569161	51	127
22.08140589569161	22.19750566893424	65	127
22.08140589569161	22.19750566893424	55	127
22.19750566893424	22.313605442176872	67	127
22.19750566893424	22.313605442176872	63	127
22.313605442176872	22.429705215419503	55	127
22.313605442176872	22.557414965986396	68	127
22.441315192743765	22.557414965986396	51	127
22.557414965986396	22.66190476190476	70	127
22.557414965986396	22.66190476190476	55	127
22.66190476190476	22.76639455782313	72	127
22.66190476190476	22.76639455782313	51	127
22.76639455782313	22.836054421768708	74	127
22.76639455782313	22.836054421768708	55	127
22.84766439909297	22.9637641723356	75	127
22.84766439909297	22.9637641723356	63	127
22.9637641723356	23.079863945578232	55	127
22.9637641723356	23.079863945578232	77	127
23.079863945578232	23.184331065759636	67	127
23.079863945578232	23.184331065759636	79	127
23.079863945578232	23.184331065759636	51	127
23.184331065759636	23.23079365079365	68	127
23.184331065759636	23.23079365079365	80	127
23.184331065759636	23.23079365079365	55	127
23.242403628117913	23.33528344671202	51	127
23.242403628117913	23.63714285714286	67	127
23.242403628117913	23.63714285714286	79	127
23.33528344671202	23.439750566893423	55	127
23.439750566893423	23.555873015873015	63	127
23.555873015873015	23.671972789115646	55	127
23.68358276643991	23.8112925170068	51	127
23.8112925170068	23.927392290249433	72	127
23.8112925170068	23.927392290249433	55	127
23.927392290249433	24.043492063492064	70	127
23.927392290249433	24.043492063492064	51	127
24.043492063492064	24.159591836734695	68	127
24.043492063492064	24.159591836734695	55	127
24.171201814058957	24.275691609977326	67	127
24.171201814058957	24.275691609977326	63	127
24.275691609977326	24.36857142857143	55	127
24.275691609977326	24.473061224489797	65	127
24.36857142857143	24.473061224489797	51	127
24.473061224489797	24.5659410430839	62	127
24.473061224489797	24.5659410430839	55	127
24.577551020408162	24.670430839002268	63	127
24.577551020408162	24.670430839002268	51	127
24.670430839002268	24.7865306122449	65	127
24.670430839002268	24.7865306122449	55	127
24.7865306122449	24.83297052154195	67	127
24.7865306122449	24.83297052154195	63	127
24.83297052154195	24.937460317460317	55	127
24.83297052154195	25.05356009070295	68	127
24.94907029478458	25.05356009070295	51	127
25.05356009070295	25.16965986394558	70	127
25.05356009070295	25.16965986394558	55	127
25.16965986394558	25.274149659863944	72	127
25.16965986394558	25.274149659863944	51	127
25.274149659863944	25.355419501133788	74	127
25.274149659863944	25.355419501133788	55	127
25.36702947845805	25.48312925170068	75	127
25.36702947845805	25.48312925170068	63	127
25.48312925170068	25.576009070294784	77	127
25.48312925170068	25.576009070294784	55	127
25.576009070294784	25.680498866213153	67	127
25.576009070294784	25.680498866213153	79	127
25.576009070294784	25.680498866213153	51	127
25.680498866213153	25.773378684807255	55	127
25.680498866213153	25.773378684807255	68	127
25.680498866213153	25.773378684807255	80	127
25.784988662131518	26.191337868480726	67	127
25.784988662131518	26.191337868480726	79	127
25.784988662131518	25.889478458049886	51	127
25.889478458049886	26.005578231292517	55	127
26.005578231292517	26.12167800453515	63	127
26.12167800453515	26.21455782312925	55	127
26.226167800453513	26.342267573696144	70	127
26.226167800453513	26.342267573696144	82	127
26.226167800453513	26.342267573696144	51	127
26.342267573696144	26.446757369614513	55	127
26.342267573696144	26.446757369614513	68	127
26.342267573696144	26.446757369614513	80	127
26.446757369614513	26.562857142857144	51	127
26.446757369614513	26.644126984126984	67	127
26.446757369614513	26.644126984126984	79	127
26.562857142857144	26.67895691609977	56	127
26.690566893424037	26.795056689342402	51	127
26.690566893424037	26.829886621315193	65	127
26.690566893424037	26.829886621315193	77	127
26.795056689342402	26.86471655328798	57	127
26.86471655328798	26.96920634920635	67	127
26.86471655328798	26.96920634920635	79	127
26.86471655328798	26.96920634920635	51	127
26.96920634920635	27.073696145124718	68	127
26.96920634920635	27.073696145124718	80	127
26.96920634920635	27.073696145124718	55	127
27.08530612244898	27.480045351473922	67	127
27.08530612244898	27.20140589569161	51	127
27.08530612244898	27.480045351473922	79	127
27.20140589569161	27.317505668934242	55	127
27.317505668934242	27.43360544217687	63	127
27.43360544217687	27.514875283446713	55	127
27.514875283446713	27.61936507936508	70	127
27.514875283446713	27.61936507936508	82	127
27.514875283446713	27.61936507936508	51	127
27.61936507936508	27.73546485260771	80	127
27.61936507936508	27.73546485260771	68	127
27.61936507936508	27.73546485260771	55	127
27.73546485260771	27.839954648526078	51	127
27.73546485260771	27.95605442176871	67	127
27.73546485260771	27.95605442176871	79	127
27.839954648526078	27.95605442176871	56	127
27.95605442176871	28.072154195011336	51	127
27.95605442176871	28.141814058956918	65	127
27.95605442176871	28.141814058956918	77	127
28.072154195011336	28.176643990929705	57	127
28.176643990929705	28.26952380952381	51	127
28.176643990929705	28.26952380952381	67	127
28.176643990929705	28.26952380952381	79	127
28.281133786848073	28.38562358276644	68	127
28.281133786848073	28.38562358276644	80	127
28.281133786848073	28.38562358276644	55	127
28.38562358276644	28.780362811791385	79	127
28.38562358276644	28.50172335600907	51	127
28.38562358276644	28.780362811791385	67	127
28.50172335600907	28.606213151927438	55	127
28.606213151927438	28.69909297052154	63	127
28.710702947845807	28.826802721088434	55	127
28.826802721088434	28.931292517006803	82	127
28.826802721088434	28.931292517006803	70	127
28.826802721088434	28.931292517006803	52	127
