# onset,offset,note,velocity
1.7407256235827664	2.5418140589569163	64	127
2.5418140589569163	3.412562358276644	64	127
3.412562358276644	4.1788208616780045	64	127
4.1788208616780045	4.991519274376417	64	127
4.991519274376417	5.177278911564626	64	127
5.177278911564626	5.560408163265306	69	127
5.560408163265306	5.989977324263038	69	127
5.989977324263038	6.407936507936508	69	127
6.407936507936508	6.628526077097506	69	127
6.733015873015873	6.814285714285714	69	127
6.883945578231293	6.965215419501134	66	127
7.046485260770975	7.150975056689342	66	127
7.278684807256236	7.487664399092971	59	127
7.952063492063492	8.068163265306122	64	127
8.068163265306122	8.300340136054421	72	127
8.300340136054421	8.474512471655329	71	127
8.474512471655329	8.683492063492064	69	127
8.683492063492064	8.915691609977324	68	127
8.915691609977324	9.113061224489796	69	127
9.113061224489796	9.287210884353742	71	127
9.287210884353742	9.461360544217687	72	127
9.461360544217687	9.647120181405896	69	127
9.693537414965986	9.902539682539683	74	127
9.902539682539683	10.15795918367347	72	127
10.15795918367347	10.30888888888889	71	127
10.30888888888889	10.45981859410431	70	127
10.45981859410431	10.65718820861678	71	127
10.65718820861678	10.900975056689342	72	127
10.900975056689342	11.109977324263038	74	127
11.109977324263038	11.295736961451247	71	127
11.342154195011338	11.504716553287983	72	127
11.504716553287983	11.667256235827665	73	127
11.667256235827665	11.829795918367347	74	127
11.829795918367347	11.980725623582767	76	127
12.027165532879819	12.630884353741497	77	127
12.630884353741497	12.723764172335601	76	127
12.723764172335601	12.793424036281179	74	127
12.805034013605443	12.921133786848072	72	127
13.037233560090703	13.164943310657597	72	127
13.257823129251701	13.362312925170068	71	127
13.431972789115646	13.478412698412699	71	127
13.513242630385488	13.594512471655328	74	127
13.594512471655328	13.710612244897959	72	127
13.710612244897959	13.838321995464852	71	127
13.838321995464852	13.931201814058957	72	127
13.954421768707483	14.082131519274377	69	127
14.175011337868481	14.349160997732426	71	127
14.349160997732426	14.430430839002268	72	127
14.546530612244897	14.709070294784581	73	127
14.709070294784581	14.77873015873016	74	127
14.918049886621315	15.01092970521542	76	127
15.115419501133786	15.672698412698413	77	127
15.672698412698413	15.812018140589569	76	127
15.812018140589569	15.904897959183673	74	127
15.939727891156462	16.032607709750568	72	127
16.032607709750568	16.11387755102041	74	127
16.11387755102041	16.22997732426304	72	127
16.22997732426304	16.31124716553288	74	127
16.334444444444443	16.462154195011337	71	127
16.462154195011337	16.57827664399093	72	127
16.57827664399093	16.671156462585035	71	127
16.671156462585035	16.7756462585034	72	127
16.787256235827666	16.984625850340137	69	127
17.94825396825397	18.168843537414965	60	127
18.784172335600907	18.935079365079364	64	127
19.503968253968253	19.67814058956916	67	127
20.316689342403627	20.502448979591836	72	127
21.0481179138322	21.291927437641725	76	127
21.291927437641725	21.535714285714285	70	127
21.535714285714285	21.709886621315192	73	127
21.709886621315192	21.96530612244898	76	127
21.96530612244898	22.127845804988663	79	127
22.127845804988663	22.38326530612245	82	127
22.38326530612245	22.56902494331066	85	127
22.615442176870747	22.917324263038548	88	127
22.917324263038548	23.53265306122449	88	127
23.53265306122449	23.741632653061224	86	127
24.5659410430839	24.821360544217686	68	127
24.821360544217686	25.041950113378686	71	127
25.041950113378686	25.18126984126984	74	127
25.18126984126984	25.36702947845805	77	127
25.36702947845805	25.564399092970522	80	127
25.564399092970522	25.73854875283447	83	127
25.784988662131518	26.191337868480726	86	127
26.191337868480726	26.80666666666667	86	127
26.80666666666667	26.992426303854874	84	127
27.85156462585034	28.060544217687074	63	127
28.060544217687074	28.31596371882086	66	127
28.31596371882086	28.50172335600907	69	127
28.50172335600907	28.69909297052154	72	127
28.69909297052154	28.861632653061225	75	127
28.861632653061225	29.03578231292517	78	127
29.08222222222222	29.48857142857143	81	127
29.48857142857143	30.115510204081634	81	127
30.115510204081634	30.278049886621314	79	127
30.33609977324263	30.93981859410431	84	127
30.93981859410431	31.10235827664399	83	127
31.12557823129252	31.531927437641723	81	127
31.531927437641723	31.857006802721088	79	127
31.90344671201814	32.50716553287982	78	127
32.50716553287982	32.68131519274377	79	127
32.73936507936508	32.983174603174604	72	127
32.983174603174604	33.180521541950114	71	127
33.55204081632653	33.77265306122449	75	127
33.77265306122449	33.9584126984127	76	127
34.39959183673469	34.794331065759636	72	127
34.794331065759636	35.16585034013605	71	127
35.16585034013605	35.36321995464853	69	127
35.36321995464853	35.52575963718821	67	127
35.52575963718821	35.63024943310658	64	127
35.63024943310658	35.734739229024946	67	127
35.75795918367347	35.885668934240364	71	127
36.384897959183675	36.489387755102044	64	127
36.489387755102044	36.59385487528345	69	127
36.61709750566894	36.72156462585034	72	127
37.22081632653061	37.33691609977324	64	127
37.33691609977324	37.40657596371882	67	127
37.42979591836735	37.534285714285716	71	127
37.998662131519275	38.1031746031746	64	127
38.1031746031746	38.184444444444445	69	127
38.20766439909297	38.3237641723356	72	127
38.82299319727891	38.93909297052154	64	127
38.93909297052154	39.03197278911565	68	127
39.055192743764174	39.171292517006805	71	127
39.76337868480726	39.89108843537415	68	127
39.89108843537415	40.00721088435374	71	127
40.042040816326534	40.204580498866214	74	127
40.34390022675737	40.541269841269845	71	127
40.541269841269845	40.72702947845805	74	127
40.808299319727894	44.18680272108843	77	127
44.18680272108843	44.79052154195011	76	127
44.79052154195011	45.359410430839006	74	127
45.44068027210884	45.54517006802721	73	127
45.54517006802721	45.66126984126984	74	127
45.66126984126984	45.76575963718821	73	127
45.76575963718821	45.88185941043084	74	127
45.88185941043084	45.986326530612246	73	127
45.986326530612246	46.11403628117914	74	127
46.11403628117914	46.24174603174603	76	127
46.24174603174603	47.51886621315193	74	127
56.9809977324263	57.79369614512472	64	127
57.79369614512472	58.64122448979592	64	127
58.64122448979592	59.38426303854875	64	127
59.38426303854875	60.220181405895694	64	127
60.220181405895694	60.41755102040816	64	127
60.41755102040816	60.82390022675737	69	127
60.82390022675737	61.23024943310658	69	127
61.23024943310658	61.61337868480726	69	127
61.61337868480726	61.85718820861678	69	127
61.93845804988662	62.031337868480726	69	127
62.12421768707483	62.228707482993194	66	127
62.35641723356009	62.42607709750567	66	127
62.50734693877551	62.69310657596372	59	127
63.122675736961455	63.285215419501135	64	127
63.285215419501135	63.4825850340136	72	127
63.4825850340136	63.64512471655329	71	127
63.64512471655329	63.888934240362815	69	127
63.888934240362815	64.07469387755103	68	127
64.07469387755103	64.28367346938775	69	127
64.28367346938775	64.46943310657596	71	127
64.46943310657596	64.69	72	127
64.69	64.87578231292517	69	127
64.93383219954649	65.0847619047619	74	127
65.0847619047619	65.31696145124717	72	127
65.31696145124717	65.47950113378685	71	127
65.47950113378685	65.71167800453514	70	127
65.71167800453514	65.92068027210884	71	127
65.92068027210884	66.12965986394558	72	127
66.12965986394558	66.30380952380952	74	127
66.30380952380952	66.4779365079365	71	127
66.51278911564626	66.75659863945579	72	127
66.75659863945579	66.98879818594105	73	127
66.98879818594105	67.15133786848072	74	127
67.15133786848072	67.26743764172336	76	127
67.27904761904762	67.85952380952381	77	127
67.85952380952381	67.91759637188208	76	127
67.91759637188208	68.02208616780045	74	127
68.04530612244898	68.18462585034014	72	127
68.26589569160998	68.35877551020408	72	127
68.45165532879818	68.57936507936508	71	127
68.66063492063492	68.70707482993197	71	127
68.7302947845805	68.81156462585034	74	127
68.81156462585034	68.92766439909298	72	127
68.92766439909298	69.06698412698412	71	127
69.06698412698412	69.17147392290249	72	127
69.18308390022676	69.29918367346939	69	127
69.41528344671202	69.5778231292517	71	127
69.5778231292517	69.63587301587302	72	127
69.74036281179139	69.91451247165533	73	127
69.91451247165533	69.99578231292517	74	127
70.13507936507936	70.21637188208616	76	127
70.29764172335601	70.93619047619048	77	127
70.93619047619048	71.04068027210884	76	127
71.04068027210884	71.12195011337869	74	127
71.13356009070294	71.24965986394558	72	127
71.24965986394558	71.3657596371882	74	127
71.3657596371882	71.47024943310657	72	127
71.47024943310657	71.55151927437642	74	127
71.57473922902494	71.65600907029479	71	127
71.65600907029479	71.78371882086168	72	127
71.78371882086168	71.841768707483	71	127
71.841768707483	71.88820861678005	72	127
71.92301587301587	72.16684807256236	69	127
73.17689342403628	73.3278231292517	73	127
73.39750566893424	73.45553287981859	73	127
73.90834467120182	74.04766439909297	71	127
74.17537414965986	74.22181405895692	71	127
74.72104308390023	74.84875283446712	74	127
74.98807256235828	75.05773242630386	74	127
75.51052154195011	75.638231292517	73	127
75.75433106575964	75.7659410430839	73	127
76.27678004535147	76.36963718820861	73	127
76.43931972789116	76.50897959183673	73	127
77.06625850340136	77.182358276644	73	127
77.21718820861678	77.22879818594105	73	127
77.85573696145124	78.0066439909297	73	127
78.04149659863945	78.07632653061225	73	127
78.72648526077097	79.55079365079365	78	127
80.38671201814059	80.52603174603175	74	127
80.67696145124717	80.71179138321996	74	127
81.26907029478458	81.39678004535148	73	127
81.44321995464853	81.4548299319728	73	127
82.00049886621315	82.12820861678004	76	127
82.72031746031746	82.83639455782313	74	127
82.96410430839002	83.03378684807257	74	127
83.56784580498866	83.68394557823129	74	127
84.41537414965987	84.57791383219954	74	127
84.728820861678	84.79850340136055	74	127
85.49507936507936	87.87514739229024	79	127
88.51369614512471	88.62979591836735	77	127
89.29156462585034	89.45410430839003	77	127
89.67469387755102	89.84884353741496	77	127
90.88213151927438	93.71496598639456	76	127
95.13138321995464	95.90925170068027	64	127
95.90925170068027	96.76839002267573	64	127
96.76839002267573	97.52303854875284	64	127
97.52303854875284	98.33573696145125	64	127
98.33573696145125	98.50988662131519	64	127
98.50988662131519	98.89301587301587	69	127
98.89301587301587	99.27614512471655	69	127
99.27614512471655	99.7637641723356	69	127
99.7637641723356	99.96113378684807	69	127
100.06562358276643	100.13528344671202	69	127
100.22816326530612	100.2978231292517	66	127
100.39070294784581	100.44875283446711	66	127
100.57646258503401	100.78544217687075	59	127
101.24984126984127	101.37755102040816	64	127
101.37755102040816	101.59814058956916	72	127
101.59814058956916	101.73746031746032	71	127
101.73746031746032	101.96965986394558	69	127
101.96965986394558	102.15541950113379	68	127
102.15541950113379	102.36439909297052	69	127
102.36439909297052	102.53854875283447	71	127
102.53854875283447	102.73591836734694	72	127
102.73591836734694	102.92167800453515	69	127
102.97972789115646	103.14226757369615	74	127
103.14226757369615	103.39768707482993	72	127
103.39768707482993	103.61827664399092	71	127
103.61827664399092	103.76920634920634	70	127
103.76920634920634	103.98979591836735	71	127
103.98979591836735	104.19877551020409	72	127
104.19877551020409	104.39614512471655	74	127
104.39614512471655	104.5354648526077	71	127
104.54707482993197	104.74444444444444	72	127
104.74444444444444	104.94181405895692	73	127
104.94181405895692	105.09274376417234	74	127
105.09274376417234	105.27850340136054	76	127
105.33655328798186	105.94027210884354	77	127
105.94027210884354	106.0447619047619	76	127
106.0447619047619	106.13764172335601	74	127
106.16086167800454	106.2653514739229	72	127
106.3930612244898	106.49755102040817	72	127
106.56721088435374	106.66009070294784	71	127
106.7065306122449	106.77619047619048	71	127
106.85746031746032	106.97356009070295	74	127
106.97356009070295	107.08965986394558	72	127
107.08965986394558	107.19414965986394	71	127
107.19414965986394	107.240589569161	72	127
107.26380952380953	107.37990929705215	69	127
107.49600907029479	107.63532879818594	71	127
107.63532879818594	107.69337868480726	72	127
107.82108843537415	108.00684807256236	73	127
108.00684807256236	108.07650793650794	74	127
108.16938775510204	108.23904761904762	76	127
108.35514739229025	109.01691609977324	77	127
109.01691609977324	109.09818594104308	76	127
109.09818594104308	109.17945578231293	74	127
109.20267573696145	109.29555555555555	72	127
109.29555555555555	109.41165532879819	74	127
109.41165532879819	109.49292517006803	72	127
109.49292517006803	109.56258503401361	74	127
109.58580498866213	109.6902947845805	71	127
109.6902947845805	109.7831746031746	72	127
109.7831746031746	109.93410430839002	71	127
109.93410430839002	110.02698412698413	72	127
110.05020408163266	110.3520634920635	69	127
110.83968253968254	111.09510204081633	72	127
111.09510204081633	112.08195011337868	77	127
112.08195011337868	112.9875283446712	76	127
112.9875283446712	113.85827664399093	82	127
113.85827664399093	114.75224489795919	81	127
114.75224489795919	115.58816326530612	79	127
115.58816326530612	116.4124716553288	78	127
116.5053514739229	116.59823129251701	81	127
116.59823129251701	116.65628117913832	79	127
116.65628117913832	116.73755102040816	81	127
116.73755102040816	116.818820861678	79	127
116.818820861678	116.9117006802721	81	127
116.9117006802721	116.99297052154195	79	127
116.99297052154195	117.26	81	127
117.26	117.53863945578232	82	127
117.53863945578232	118.07269841269841	81	127
118.07269841269841	118.3281179138322	79	127
118.97827664399092	119.04793650793651	71	127
119.18725623582766	119.31496598639455	71	127
119.31496598639455	119.51233560090704	72	127
119.76775510204082	119.87224489795918	71	127
119.99995464852607	120.22054421768708	71	127
120.22054421768708	120.42952380952381	72	127
120.69655328798186	120.8126530612245	71	127
120.88231292517007	121.12612244897959	71	127
121.12612244897959	121.3118820861678	72	127
121.52086167800454	121.60213151927438	71	127
121.69501133786848	121.91560090702947	71	127
121.91560090702947	122.11297052154195	72	127
122.35678004535147	122.42643990929706	73	127
122.51931972789116	122.76312925170068	73	127
122.76312925170068	122.93727891156463	74	127
122.99532879818594	123.20430839002267	78	127
123.20430839002267	123.43650793650794	74	127
123.43650793650794	123.6687074829932	79	127
123.6687074829932	123.85446712018141	74	127
123.90090702947846	124.12149659863945	77	127
124.12149659863945	124.35369614512472	72	127
124.35369614512472	124.56267573696145	76	127
124.56267573696145	124.78326530612244	70	127
124.84131519274376	125.11995464852608	69	127
125.52630385487528	125.79333333333334	72	127
125.79333333333334	126.69891156462585	84	127
126.69891156462585	127.58126984126984	81	127
127.58126984126984	128.49843537414966	86	127
128.49843537414966	129.31115646258505	82	127
129.31115646258505	130.3328344671202	79	127
130.3328344671202	131.27324263038548	81	127
131.27324263038548	131.76086167800455	77	127
131.76086167800455	132.27170068027212	82	127
132.27170068027212	132.34136054421768	79	127
132.50390022675737	132.794126984127	74	127
132.794126984127	133.03795918367348	72	127
133.03795918367348	133.27015873015873	70	127
133.31659863945578	133.42108843537414	69	127
133.502358276644	133.6184580498866	71	127
133.74616780045352	134.01319727891158	72	127
134.01319727891158	134.19895691609977	74	127
134.39632653061224	134.5008163265306	72	127
134.61691609977325	134.86072562358277	72	127
134.86072562358277	135.0697052154195	73	127
135.27868480725624	135.3831746031746	73	127
135.48766439909298	135.69664399092972	73	127
135.69664399092972	135.90562358276645	74	127
136.1378231292517	136.2190702947846	73	127
136.34680272108844	136.57897959183674	73	127
136.57897959183674	136.78798185941042	74	127
137.07823129251702	137.14789115646258	71	127
137.26399092970522	137.46136054421768	71	127
137.46136054421768	137.62390022675737	72	127
137.67034013605442	137.85607709750568	72	127
137.85607709750568	138.0882993197279	77	127
138.0882993197279	138.29727891156463	74	127
138.29727891156463	138.54108843537415	79	127
138.54108843537415	138.7268253968254	77	127
138.7268253968254	138.92421768707484	72	127
138.92421768707484	139.1564172335601	76	127
139.1564172335601	139.35378684807256	70	127
139.41183673469388	139.67886621315193	69	127
140.17809523809524	140.4451247165533	72	127
140.4451247165533	141.37392290249434	77	127
141.37392290249434	142.29111111111112	76	127
142.29111111111112	143.16185941043085	82	127
143.16185941043085	144.07904761904763	81	127
144.07904761904763	144.97301587301587	79	127
144.97301587301587	145.73927437641723	78	127
145.85537414965987	145.92503401360545	81	127
145.92503401360545	145.99469387755101	79	127
145.99469387755101	146.08755102040817	81	127
146.08755102040817	146.16884353741497	79	127
146.16884353741497	146.2501133786848	78	127
146.2501133786848	146.33138321995466	79	127
146.33138321995466	146.57519274376418	81	127
146.57519274376418	146.85380952380953	82	127
146.85380952380953	147.37628117913832	81	127
147.37628117913832	147.59687074829932	79	127
147.9451700680272	148.1077097505669	69	127
148.1077097505669	148.22380952380954	72	127
148.22380952380954	148.39795918367346	77	127
148.39795918367346	148.54888888888888	81	127
148.54888888888888	148.72303854875284	79	127
148.72303854875284	148.85074829931972	77	127
148.88557823129253	149.04809523809524	82	127
149.04809523809524	149.18743764172336	79	127
149.18743764172336	149.33836734693878	76	127
149.33836734693878	149.50090702947847	70	127
149.50090702947847	149.6518367346939	67	127
149.6518367346939	149.77954648526077	65	127
149.8143537414966	149.965306122449	64	127
149.965306122449	150.1162358276644	67	127
150.1162358276644	150.25555555555556	70	127
150.25555555555556	150.40648526077098	76	127
150.40648526077098	150.5574149659864	77	127
150.5574149659864	150.69673469387754	79	127
150.73156462585035	150.8708843537415	81	127
150.8708843537415	150.99859410430838	77	127
150.99859410430838	151.13791383219956	72	127
151.13791383219956	151.3120634920635	77	127
151.3120634920635	151.47460317460317	72	127
151.47460317460317	151.5907029478458	69	127
151.61392290249432	151.776462585034	74	127
151.776462585034	151.9390022675737	70	127
151.9390022675737	152.1247619047619	67	127
152.1247619047619	152.31052154195012	70	127
152.31052154195012	152.46145124716554	67	127
152.46145124716554	152.58916099773242	62	127
152.62399092970523	152.7865306122449	60	127
152.7865306122449	152.87941043083902	62	127
152.87941043083902	153.01873015873016	66	127
153.01873015873016	153.18126984126985	58	127
153.18126984126985	153.30897959183673	62	127
153.30897959183673	153.42507936507937	67	127
153.45990929705215	153.6340589569161	65	127
153.6340589569161	153.80820861678004	69	127
153.80820861678004	153.93591836734694	65	127
153.93591836734694	154.08684807256236	64	127
154.08684807256236	154.26097505668935	60	127
154.26097505668935	154.37709750566893	58	127
154.41192743764174	154.5744671201814	57	127
154.5744671201814	154.7021768707483	65	127
154.7021768707483	154.8763038548753	69	127
154.8763038548753	155.0504761904762	72	127
155.0504761904762	155.22462585034015	77	127
155.22462585034015	155.3639455782313	81	127
155.41038548752834	156.37401360544217	84	127
156.37401360544217	157.2447619047619	81	127
157.2447619047619	158.17356009070295	86	127
158.17356009070295	159.06750566893425	82	127
159.06750566893425	159.984716553288	79	127
159.984716553288	160.83224489795919	81	127
160.83224489795919	161.2966439909297	77	127
161.2966439909297	161.69138321995464	82	127
161.7726530612245	161.90036281179138	79	127
162.73628117913833	162.92204081632653	57	127
162.92204081632653	163.10777777777778	60	127
163.10777777777778	163.2471201814059	65	127
163.2471201814059	163.4096598639456	69	127
163.4096598639456	163.54897959183674	70	127
163.54897959183674	163.66507936507938	69	127
