# onset,offset,note,velocity
0.4984580498866213	1.4620861678004535	64	127
1.4620861678004535	2.3212244897959184	64	127
2.3212244897959184	2.9713832199546486	64	127
2.9713832199546486	3.691201814058957	64	127
3.691201814058957	3.8653514739229027	64	127
3.8653514739229027	4.23687074829932	69	127
4.23687074829932	4.631609977324263	69	127
4.631609977324263	5.061179138321996	69	127
5.061179138321996	5.351428571428571	69	127
5.409478458049887	5.502358276643991	69	127
5.5836281179138325	5.722925170068027	66	127
5.757777777777778	5.80421768707483	66	127
5.908707482993197	6.129297052154195	59	127
6.524036281179138	6.7562358276643995	64	127
6.7562358276643995	6.953605442176871	72	127
6.953605442176871	7.092925170068027	71	127
7.092925170068027	7.301904761904762	69	127
7.301904761904762	7.4412244897959186	68	127
7.4412244897959186	7.63859410430839	69	127
7.63859410430839	7.859183673469388	71	127
7.859183673469388	8.079773242630386	72	127
8.079773242630386	8.277142857142858	69	127
8.323582766439909	8.55578231292517	74	127
8.55578231292517	8.764761904761905	72	127
8.764761904761905	8.985351473922902	71	127
8.985351473922902	9.2059410430839	70	127
9.2059410430839	9.43814058956916	71	127
9.43814058956916	9.647120181405896	72	127
9.647120181405896	9.844489795918367	74	127
9.844489795918367	9.902539682539683	71	127
9.925759637188209	10.12312925170068	72	127
10.12312925170068	10.35532879818594	73	127
10.35532879818594	10.50625850340136	74	127
10.50625850340136	10.65718820861678	76	127
10.703628117913832	11.19124716553288	77	127
11.19124716553288	11.27251700680272	76	127
11.27251700680272	11.342154195011338	74	127
11.365396825396825	11.446666666666667	72	127
11.57437641723356	11.667256235827665	72	127
11.771746031746032	11.887845804988663	71	127
12.003945578231292	12.131655328798185	71	127
12.201315192743763	12.247755102040816	74	127
12.247755102040816	12.37546485260771	72	127
12.37546485260771	12.468344671201814	71	127
12.468344671201814	12.538004535147392	72	127
12.549614512471654	12.677324263038548	69	127
12.781814058956916	13.048843537414966	71	127
13.048843537414966	13.106893424036281	72	127
13.211383219954648	13.44358276643991	73	127
13.44358276643991	13.478412698412699	74	127
13.52485260770975	13.664172335600908	76	127
13.780272108843537	14.233061224489797	77	127
14.233061224489797	14.349160997732426	76	127
14.349160997732426	14.407210884353741	74	127
14.407210884353741	14.418820861678004	72	127
14.418820861678004	14.523310657596372	74	127
14.523310657596372	14.62780045351474	72	127
14.62780045351474	14.732290249433106	74	127
14.755510204081633	14.883219954648526	71	127
14.883219954648526	14.999319727891157	72	127
14.999319727891157	15.092199546485261	71	127
15.092199546485261	15.115419501133786	72	127
15.12702947845805	15.336009070294784	69	127
16.299637188208617	16.462154195011337	60	127
16.984625850340137	17.19360544217687	64	127
17.785714285714285	17.983061224489795	67	127
18.621609977324262	18.737732426303854	72	127
19.260181405895693	19.49238095238095	76	127
19.49238095238095	19.654920634920636	70	127
19.654920634920636	19.875510204081632	73	127
19.875510204081632	20.107709750566894	76	127
20.107709750566894	20.351519274376418	79	127
20.351519274376418	20.595328798185943	82	127
20.595328798185943	20.757868480725623	85	127
20.804308390022676	21.01328798185941	88	127
21.01328798185941	21.605396825396827	88	127
21.605396825396827	21.79113378684807	86	127
22.603854875283446	22.812834467120183	68	127
22.812834467120183	22.986984126984126	71	127
22.986984126984126	23.195963718820863	74	127
23.195963718820863	23.42816326530612	77	127
23.42816326530612	23.671972789115646	80	127
23.671972789115646	23.857732426303855	83	127
23.91578231292517	24.29891156462585	86	127
24.29891156462585	24.7865306122449	86	127
24.7865306122449	24.914240362811793	84	127
25.71532879818594	25.877868480725624	63	127
25.877868480725624	26.110068027210886	66	127
26.110068027210886	26.29582766439909	69	127
26.29582766439909	26.4815873015873	72	127
26.4815873015873	26.7021768707483	75	127
26.7021768707483	26.841496598639456	78	127
26.88793650793651	27.340725623582767	81	127
27.340725623582767	27.839954648526078	81	127
27.839954648526078	28.025714285714287	79	127
28.060544217687074	28.745532879818594	84	127
28.745532879818594	28.896462585034012	83	127
28.942902494331065	29.360861678004536	81	127
29.360861678004536	29.48857142857143	79	127
29.581451247165532	30.231609977324265	78	127
30.231609977324265	30.347709750566892	79	127
30.382539682539683	30.63795918367347	72	127
30.63795918367347	30.82371882086168	71	127
31.13718820861678	31.29972789115646	75	127
31.29972789115646	31.450657596371883	76	127
31.949886621315194	32.333015873015874	72	127
32.333015873015874	32.762585034013604	71	127
32.762585034013604	32.983174603174604	69	127
32.983174603174604	33.16891156462585	67	127
33.16891156462585	33.2037641723356	64	127
33.2037641723356	33.215374149659866	67	127
33.23859410430839	33.366303854875284	71	127
33.911972789115644	33.981632653061226	64	127
33.981632653061226	34.086122448979594	69	127
34.10934240362812	34.202222222222225	72	127
34.72467120181406	34.77111111111111	67	127
34.794331065759636	34.93365079365079	71	127
35.52575963718821	35.54897959183673	64	127
35.54897959183673	35.618639455782315	69	127
35.64185941043084	35.734739229024946	72	127
36.164308390022676	36.28040816326531	64	127
36.28040816326531	36.35004535147392	68	127
36.37328798185941	36.500997732426306	71	127
36.988616780045355	37.12793650793651	68	127
37.12793650793651	37.22081632653061	71	127
37.255646258503404	37.418185941043085	74	127
37.60394557823129	37.85934240362812	71	127
37.85934240362812	38.068344671201814	74	127
38.230884353741494	41.09854875283447	77	127
41.09854875283447	41.574557823129254	76	127
41.574557823129254	42.08539682539683	74	127
42.13183673469388	42.20149659863946	73	127
42.20149659863946	42.29437641723356	74	127
42.29437641723356	42.387256235827664	73	127
42.387256235827664	42.398866213151926	74	127
42.398866213151926	42.42208616780045	73	127
42.42208616780045	42.433673469387756	74	127
42.433673469387756	42.503356009070295	76	127
42.503356009070295	43.1302947845805	74	127
51.408208616780044	52.453106575963716	64	127
52.453106575963716	53.48639455782313	64	127
53.48639455782313	54.426802721088436	64	127
54.426802721088436	55.30916099773243	64	127
55.30916099773243	55.518140589569164	64	127
55.518140589569164	55.947709750566894	69	127
55.947709750566894	56.37727891156462	69	127
56.37727891156462	56.85328798185941	69	127
56.85328798185941	57.17836734693878	69	127
57.23641723356009	57.329297052154196	69	127
57.433786848072565	57.526666666666664	66	127
57.596326530612245	57.66598639455783	66	127
57.78208616780045	57.89818594104308	59	127
58.42063492063492	58.65283446712018	64	127
58.65283446712018	58.850204081632654	72	127
58.850204081632654	59.059183673469384	71	127
59.059183673469384	59.2449433106576	69	127
59.2449433106576	59.40748299319728	68	127
59.40748299319728	59.62807256235828	69	127
59.62807256235828	59.8718820861678	71	127
59.8718820861678	60.06925170068027	72	127
60.06925170068027	60.19696145124716	69	127
60.25501133786848	60.46399092970522	74	127
60.46399092970522	60.68458049886621	72	127
60.68458049886621	60.91678004535147	71	127
60.91678004535147	61.09092970521542	70	127
61.09092970521542	61.265079365079366	71	127
61.265079365079366	61.39278911564626	72	127
61.39278911564626	61.5669387755102	74	127
61.5669387755102	61.752698412698415	71	127
61.799138321995464	61.95006802721088	72	127
61.95006802721088	62.08938775510204	73	127
62.08938775510204	62.33319727891156	74	127
62.33319727891156	62.49573696145125	76	127
62.5421768707483	63.14589569160998	77	127
63.14589569160998	63.227165532879816	76	127
63.227165532879816	63.26199546485261	74	127
63.285215419501135	63.41292517006803	72	127
63.505804988662135	63.598684807256234	72	127
63.69156462585034	63.80766439909297	71	127
63.91215419501134	64.03986394557823	71	127
64.13274376417233	64.24884353741497	74	127
64.24884353741497	64.33011337868481	72	127
64.33011337868481	64.43458049886621	71	127
64.43458049886621	64.53909297052154	72	127
64.5622902494331	64.66680272108843	69	127
64.73646258503402	64.94541950113378	71	127
64.94541950113378	65.00349206349206	72	127
65.09637188208617	65.25891156462585	73	127
65.25891156462585	65.3053514739229	74	127
65.43306122448979	65.56074829931973	76	127
65.6536507936508	66.1992970521542	77	127
66.1992970521542	66.31541950113379	76	127
66.31541950113379	66.41990929705216	72	127
66.41990929705216	66.52439909297053	74	127
66.52439909297053	66.64049886621315	72	127
66.64049886621315	66.74498866213152	74	127
66.76820861678004	66.89591836734694	71	127
66.89591836734694	67.04684807256236	72	127
67.04684807256236	67.19777777777777	71	127
67.19777777777777	67.31387755102041	72	127
67.33709750566894	67.65056689342404	69	127
68.64902494331066	68.71868480725624	73	127
68.83478458049886	68.98571428571428	73	127
69.56621315192744	69.70553287981859	71	127
70.36730158730158	70.48340136054422	74	127
70.61111111111111	70.64591836734694	74	127
71.18	71.3077097505669	73	127
71.4354195011338	71.50507936507937	73	127
72.03913832199547	72.16684807256236	73	127
72.27133786848073	72.35260770975057	73	127
72.86344671201815	72.99115646258504	73	127
73.10725623582766	73.2233560090703	73	127
73.74580498866213	73.88512471655329	73	127
74.02444444444444	74.21020408163265	73	127
75.41764172335601	76.95015873015873	78	127
78.09954648526077	78.23886621315192	74	127
78.95868480725623	79.0980045351474	73	127
79.79458049886621	79.89907029478458	76	127
79.98036281179138	80.02678004535147	76	127
80.60730158730159	80.73501133786849	74	127
80.83950113378685	80.89755102040816	74	127
81.46643990929705	81.58253968253969	74	127
81.69863945578231	81.72185941043084	74	127
82.37201814058957	82.52294784580499	74	127
82.62743764172336	82.73192743764173	74	127
83.53301587301587	86.08721088435374	79	127
86.74895691609977	86.87666666666667	77	127
87.01600907029479	87.15530612244898	77	127
87.92158730158731	88.08412698412698	77	127
88.25827664399092	88.42081632653061	77	127
89.23351473922902	91.49746031746032	76	127
92.21725623582766	93.00675736961452	64	127
93.00675736961452	94.0168253968254	64	127
94.0168253968254	94.66698412698413	64	127
94.66698412698413	95.32875283446712	64	127
95.32875283446712	95.35197278911565	64	127
95.35197278911565	95.65383219954649	69	127
95.65383219954649	96.10662131519274	69	127
96.10662131519274	96.52458049886621	69	127
96.52458049886621	96.8728798185941	69	127
96.98897959183674	97.0934693877551	69	127
97.20956916099773	97.26761904761905	66	127
97.43015873015872	97.6275283446712	59	127
98.12675736961451	98.33573696145125	64	127
98.33573696145125	98.41700680272109	72	127
98.41700680272109	98.62598639455783	71	127
98.62598639455783	98.88140589569161	69	127
98.88140589569161	99.09038548752835	68	127
99.09038548752835	99.3225850340136	69	127
99.3225850340136	99.57800453514739	71	127
99.57800453514739	99.77537414965987	72	127
99.77537414965987	99.94952380952381	69	127
100.00757369614513	100.21655328798185	74	127
100.21655328798185	100.34426303854875	72	127
100.34426303854875	100.48358276643991	71	127
100.48358276643991	100.68095238095238	70	127
100.68095238095238	100.90154195011338	71	127
100.90154195011338	100.97120181405896	72	127
100.97120181405896	101.19179138321995	74	127
101.19179138321995	101.37755102040816	71	127
101.42399092970521	101.59814058956916	72	127
101.59814058956916	101.80712018140589	73	127
101.80712018140589	102.01609977324263	74	127
102.01609977324263	102.19024943310657	76	127
102.24829931972789	102.84040816326531	77	127
102.84040816326531	102.95650793650793	76	127
102.95650793650793	103.03777777777778	74	127
103.0609977324263	103.14226757369615	72	127
103.21192743764172	103.31641723356009	72	127
103.42090702947846	103.49056689342403	71	127
103.58344671201814	103.66471655328799	71	127
103.79242630385488	103.88530612244898	74	127
103.88530612244898	104.0014058956916	72	127
104.0014058956916	104.11750566893424	71	127
104.11750566893424	104.18716553287982	72	127
104.19877551020409	104.25682539682539	69	127
104.32648526077098	104.5702947845805	71	127
104.5702947845805	104.60512471655329	72	127
104.72122448979592	104.91859410430838	73	127
104.91859410430838	105.0114739229025	74	127
105.15079365079364	105.27850340136054	76	127
105.34816326530613	105.89383219954648	77	127
105.89383219954648	106.00993197278912	76	127
106.00993197278912	106.10281179138322	74	127
106.11442176870749	106.23052154195011	72	127
106.23052154195011	106.358231292517	74	127
106.358231292517	106.4859410430839	72	127
106.4859410430839	106.57882086167801	74	127
106.60204081632654	106.71814058956916	71	127
106.71814058956916	106.81102040816326	72	127
106.81102040816326	106.9271201814059	71	127
106.9271201814059	107.00839002267574	72	127
107.04321995464852	107.29863945578231	69	127
107.68176870748299	107.92557823129252	72	127
107.92557823129252	108.90081632653062	77	127
108.90081632653062	109.77156462585035	76	127
109.77156462585035	110.73519274376417	82	127
110.73519274376417	111.64077097505668	81	127
111.64077097505668	112.44185941043084	79	127
112.44185941043084	113.27777777777777	78	127
113.34743764172336	113.37065759637188	81	127
113.37065759637188	113.45192743764173	79	127
113.45192743764173	113.5215873015873	81	127
113.5215873015873	113.56802721088435	79	127
113.56802721088435	113.66090702947845	81	127
113.66090702947845	113.71895691609977	79	127
113.71895691609977	113.91632653061224	81	127
113.91632653061224	114.17174603174603	82	127
114.17174603174603	114.65936507936507	81	127
114.65936507936507	114.83351473922903	79	127
115.28630385487529	115.39079365079365	71	127
115.51850340136055	115.71587301587302	71	127
115.71587301587302	115.84358276643991	72	127
116.08739229024944	116.18027210884354	71	127
116.26154195011338	116.5053514739229	71	127
116.5053514739229	116.69111111111111	72	127
116.93492063492063	117.05102040816327	71	127
117.17873015873016	117.43414965986395	71	127
117.43414965986395	117.63151927437642	72	127
117.8869387755102	117.99142857142857	71	127
118.09591836734694	118.30489795918368	71	127
118.30489795918368	118.50226757369614	72	127
118.79251700680273	118.87378684807257	73	127
118.97827664399092	119.16403628117914	73	127
119.16403628117914	119.33818594104308	74	127
119.3962358276644	119.62843537414966	78	127
119.62843537414966	119.88385487528345	74	127
119.88385487528345	120.09283446712018	79	127
120.09283446712018	120.20893424036281	74	127
120.23215419501133	120.4643537414966	77	127
120.4643537414966	120.69655328798186	72	127
120.69655328798186	120.92875283446712	76	127
120.92875283446712	121.12612244897959	70	127
121.17256235827665	121.45120181405896	69	127
121.86916099773242	122.08975056689343	72	127
122.08975056689343	123.04176870748299	84	127
123.04176870748299	123.99378684807256	81	127
123.99378684807256	124.84131519274376	86	127
124.84131519274376	125.83977324263039	82	127
125.83977324263039	126.68730158730159	79	127
126.68730158730159	127.5928798185941	81	127
127.5928798185941	128.08049886621316	77	127
128.08049886621316	128.60292517006803	82	127
128.60292517006803	128.6958276643991	79	127
128.8815873015873	129.14861678004536	74	127
129.14861678004536	129.33437641723356	72	127
129.33437641723356	129.5433560090703	70	127
129.55496598639456	129.6362358276644	69	127
129.75233560090703	129.86843537414967	71	127
129.93809523809523	130.1702947845805	72	127
130.1702947845805	130.36766439909297	74	127
130.59986394557822	130.72757369614513	72	127
130.84367346938777	131.08748299319728	72	127
131.08748299319728	131.28485260770975	73	127
131.5518820861678	131.60993197278913	73	127
131.70281179138323	131.9001814058957	73	127
131.9001814058957	132.0859410430839	74	127
132.35297052154195	132.4690702947846	73	127
132.58517006802722	132.7825396825397	73	127
132.7825396825397	132.95668934240362	74	127
133.25854875283446	133.35142857142858	71	127
133.47913832199546	133.73455782312925	71	127
133.73455782312925	133.9087074829932	72	127
133.943537414966	134.164126984127	72	127
134.164126984127	134.4079365079365	77	127
134.4079365079365	134.65174603174603	74	127
134.65174603174603	134.8839455782313	79	127
134.8839455782313	135.09290249433107	77	127
135.09290249433107	135.33673469387756	72	127
135.33673469387756	135.59215419501135	76	127
135.59215419501135	135.80113378684808	70	127
135.8243537414966	136.0449433106576	69	127
136.56739229024944	136.83439909297053	72	127
136.83439909297053	137.62390022675737	77	127
137.62390022675737	138.41337868480727	76	127
138.41337868480727	139.31895691609978	82	127
139.31895691609978	140.29419501133788	81	127
140.29419501133788	141.19977324263039	79	127
141.19977324263039	141.96603174603175	78	127
142.07052154195011	142.151768707483	81	127
142.151768707483	142.22145124716553	79	127
142.22145124716553	142.31433106575963	81	127
142.31433106575963	142.37238095238095	79	127
142.37238095238095	142.44204081632654	78	127
142.44204081632654	142.50009070294786	79	127
142.50009070294786	142.56975056689342	81	127
142.56975056689342	142.86	82	127
142.86	143.32437641723357	81	127
143.32437641723357	143.53337868480725	79	127
143.85845804988662	143.97455782312926	69	127
143.97455782312926	144.13709750566895	72	127
144.13709750566895	144.2996371882086	77	127
144.2996371882086	144.42734693877551	81	127
144.42734693877551	144.57827664399093	79	127
144.57827664399093	144.63632653061225	77	127
144.67115646258503	144.82208616780045	82	127
144.82208616780045	144.9962358276644	79	127
144.9962358276644	145.1587755102041	76	127
145.1587755102041	145.32131519274375	70	127
145.32131519274375	145.54190476190476	67	127
145.54190476190476	145.66961451247167	65	127
145.70444444444445	145.83213151927438	64	127
145.83213151927438	146.00630385487528	67	127
146.00630385487528	146.16884353741497	70	127
146.16884353741497	146.33138321995466	76	127
146.33138321995466	146.45909297052154	77	127
146.45909297052154	146.61002267573696	79	127
146.6448299319728	146.7841723356009	81	127
146.7841723356009	146.86544217687074	77	127
146.86544217687074	147.00473922902495	72	127
147.00473922902495	147.16730158730158	77	127
147.16730158730158	147.318231292517	72	127
147.318231292517	147.42272108843537	69	127
147.45755102040818	147.6317006802721	74	127
147.6317006802721	147.759410430839	70	127
147.759410430839	147.86390022675738	67	127
147.86390022675738	148.0264172335601	70	127
148.0264172335601	148.15414965986395	67	127
148.15414965986395	148.28183673469388	62	127
148.31668934240363	148.4443990929705	60	127
148.4443990929705	148.5837188208617	62	127
148.5837188208617	148.79267573696146	66	127
148.79267573696146	148.9552380952381	58	127
148.9552380952381	149.11777777777777	62	127
149.11777777777777	149.2687074829932	67	127
149.30351473922903	149.45446712018142	65	127
149.45446712018142	149.59378684807257	69	127
149.59378684807257	149.75632653061226	65	127
149.75632653061226	149.91884353741497	64	127
149.91884353741497	150.10462585034014	60	127
150.10462585034014	150.26716553287983	58	127
150.3019954648526	150.47614512471657	57	127
150.47614512471657	150.61546485260772	65	127
150.61546485260772	150.75478458049886	69	127
150.75478458049886	150.88249433106577	72	127
150.88249433106577	150.90571428571428	77	127
150.90571428571428	151.0450113378685	81	127
151.09145124716554	151.9390022675737	84	127
151.9390022675737	152.7865306122449	81	127
152.7865306122449	153.62244897959184	86	127
153.62244897959184	154.51639455782313	82	127
154.51639455782313	155.37555555555556	79	127
155.37555555555556	156.2463038548753	81	127
156.2463038548753	156.5829931972789	77	127
156.5829931972789	156.98934240362811	82	127
157.0590022675737	157.16349206349207	79	127
158.0458276643991	158.20839002267573	57	127
158.20839002267573	158.35931972789115	60	127
158.35931972789115	158.51024943310657	65	127
158.51024943310657	158.61473922902493	69	127
158.61473922902493	158.7540589569161	70	127
158.7540589569161	158.83532879818594	69	127
158.87015873015872	158.99786848072563	67	127
158.99786848072563	159.14879818594105	66	127
159.14879818594105	159.2881179138322	67	127
